ECG,PPG,RSP
0.0037664851948931,-0.1025390625,0.4946524989068091
-0.0174659169775867,-0.1037597656250231,0.5024827168260766
-0.0156791370082469,-0.107421875,0.5111024935799695
-0.0015977050524144,-0.1108551025390733,0.5187909668065165
0.0024827108020106,-0.1126098632812615,0.5286687887849008
-0.0146149624731127,-0.1176452636718836,0.5355461205275979
-0.0010043010066689,-0.12176513671875,0.5448726763321392
-0.0029886714846428,-0.1254272460937615,0.5524351208096104
0.0058801122813627,-0.131530761718749,0.5619625334688144
0.0118233711304822,-0.1326751708984466,0.5710804915801315
0.0283330351855437,-0.1387023925781356,0.5800052265820292
0.022735595703125,-0.1410675048828168,0.5872845230340195
0.0267066759786165,-0.1449584960937538,0.5966856258241964
0.016632080078125,-0.14617919921875,0.6056027036542054
0.0162488265785538,-0.14617919921875,0.6143858278300245
-0.0075921528317785,-0.1457214355468721,0.6223873850096393
-0.0013025692692344,-0.14160156249997,0.6314756782733527
-0.0146186705791039,-0.1282501220702878,0.6392390565788185
-0.0556759793083772,-0.107727050781194,0.6468684611500659
-0.038414960284685,-0.0821685791014567,0.6548030415025763
-0.041976582665667,-0.0491333007811524,0.6618220945113005
-0.0461336254587195,-0.0096130371093199,0.6692803305021847
-0.0388279756851403,0.03387451171886,0.67657470703125
-0.0273431081094592,0.077819824218806,0.6836607602937669
-0.0261595429373059,0.1199340820313581,0.69061279296875
-0.0191668131302039,0.161666870117307,0.6966420929280721
-0.0331450824325084,0.1983642578125888,0.7034672702274326
-0.0100258868498928,0.2309417724609766,0.710211066649181
-0.0018681223603697,0.259704589843804,0.71533203125
0.0072201340900506,0.2803802490235055,0.7215025772487669
0.002362900158489,0.2963256835937664,0.7261772438554628
-0.0043880213152552,0.3049468994140697,0.73272705078125
-0.0094119158680794,0.3054809570312519,0.7379520531886892
-0.0008149617031035,0.3043365478515292,0.743207071843707
-0.002869110167658,0.2952575683593629,0.7469662780400301
0.0112094152087178,0.2806854248046648,0.7507624983625459
0.0141537132485922,0.264892578124945,0.7544615850504293
0.0177001953125,0.2434539794921619,0.7594484052370752
-0.0007294092062462,0.2215576171874382,0.762731464525045
0.0040008170764616,0.1955413818358861,0.7666015625
-0.016933882420053,0.1699829101561872,0.7696164132796305
-0.0316158702468824,0.1447296142577782,0.7746032033462515
-0.0313023010272484,0.1179504394530583,0.7761961594795966
-0.0196871661499816,0.0925445556639683,0.7795899666395751
-0.0192076474756434,0.0729370117186872,0.7818603515625
-0.0046361950075111,0.0493621826171638,0.78460693359375
-0.0046901148171181,0.0312805175780815,0.7868773385966749
-0.0168030746318719,0.0168609619140147,0.7869444359037546
0.0373125684968452,0.004272460937472,0.7888123005708344
0.0877683478635537,-0.0072479248047043,0.7895200568479287
0.0839091265530825,-0.0170898437500115,0.7919982529975016
-0.0584274642056316,-0.02326965332034,0.7918640483433284
-0.1122807119846336,-0.0250244140625144,0.79132080078125
-0.0454807243843768,-0.029449462890624,0.79132080078125
-0.0346893680018765,-0.0292968750000019,0.7921692140845843
-0.0246767690894383,-0.0334930419921957,0.79193115234375
-0.0194090899968442,-0.0338745117187509,0.7926453174862684
-0.013275146484375,-0.0341033935546862,0.7924072557454187
0.0015836992551566,-0.0361633300781394,0.7911498798541595
-1.5239043734669783e-05,-0.0393676757812519,0.7894226153200061
0.0036071504255727,-0.0393676757812664,0.78887939453125
-0.0051696753247845,-0.0444030761718721,0.7866394006824894
-0.0043853406358533,-0.0463867187500077,0.7869140582162777
0.0304657064749869,-0.0524902343750077,0.78460693359375
0.0252318805825675,-0.05828857421875,0.7827453171521396
0.0236358338031402,-0.0594329833984592,0.77911376953125
0.022521817370937,-0.0657653808593841,0.7784056685475622
0.0390442272035191,-0.0725555419921957,0.7763365755458895
0.0277191495437383,-0.0781250000000144,0.7729430930125077
0.030432154474783,-0.0838470458984592,0.7698241676129339
0.0329254005814647,-0.0900268554687673,0.7670775788883591
0.0082521789580284,-0.0943756103515675,0.7649413417262776
0.0234467086862344,-0.097961425781248,0.7622619272820936
0.0292383267513161,-0.09735107421875,0.758941455614678
-0.0089297817742648,-0.0950622558593605,0.7546325260575137
-0.0109037708942238,-0.0875091552734042,0.7520203093204003
-0.0236551792062289,-0.0717163085936862,0.7468995120528943
-0.0469298792987714,-0.0455474853515243,0.7453428605525645
-0.0551668208864011,-0.0129699707030332,0.7408324081541994
-0.0598872230309844,0.0253295898439006,0.7375062806211933
-0.0309081407431464,0.067138671875,0.7326234781611856
-0.049614755501931,0.1126861572266189,0.7302492863515705
-0.0227383366225849,0.157165527343862,0.72479248046875
-0.015869140625,0.2009582519532901,0.7223201945313271
-0.0137610957774801,0.2416992187500917,0.7171630859375
-0.0155357474291536,0.2774810791016054,0.7130613652071245
-0.019143388141325,0.3092956542969474,0.71089419815765
-0.019769201300859,0.3351593017578429,0.706042308851718
-0.0149098188096938,0.3543090820312828,0.7008543138771365
0.0058191008864002,0.3658294677734556,0.6984129009337963
-0.0161898148166067,0.3717041015625154,0.6929507269986781
-0.019052768792119,0.373916625976562,0.6895317763368526
-0.0069854223618895,0.369262695312471,0.6854558349748544
-0.0020689859083573,0.3575897216796397,0.68145751953125
0.0107147762972783,0.3430175781249334,0.67901611328125
0.0142579250818458,0.3245544433593508,0.673828125
0.008428491364085,0.3045654296874411,0.671319464149615
0.0019655705816136,0.2805328369139597,0.6663021324088295
-0.0080018316062131,0.2536010742187162,0.6638918468061764
-0.0115761361781275,0.228500366210907,0.6593503340004799
-0.0164327459564615,0.1992797851561882,0.6558900218933051
-0.0287332947685319,0.1743316650389596,0.6535519807700582
-0.0381133353160583,0.1470947265624304,0.6493467878196166
-0.0237881037605021,0.1216888427733918,0.6468693145498974
0.0022395621288422,0.099792480468692,0.6443966872525615
-0.0246435132692106,0.0780487060546657,0.64117431640625
0.0581036976943756,0.0607299804687055,0.6380240059727154
0.1119744133969301,0.0427246093749304,0.6346310421725735
0.10009765625,0.0292968749999671,0.631341396645865
0.0264437083494298,0.0167083740234235,0.6292051628304586
-0.1003332113379963,0.0051879882812191,0.6270016275613235
-0.0911761005808139,-0.0035858154297121,0.6247307807984906
-0.0129944682983917,-0.0103759765625,0.6228324045772927
-0.0033121351224084,-0.0168609619140765,0.6215443732252667
0.0048693722892334,-0.0259399414062654,0.6184925953327358
-0.0139662798713317,-0.0320434570312731,0.6150324204388756
-0.0110020440686389,-0.0381469726562644,0.6120794060073667
-0.0183351264635519,-0.0439453125000077,0.6098085358178756
0.0085943186654994,-0.0503540039062673,0.606824109579083
-0.0027264735884501,-0.0576782226562596,0.6022149974663884
0.0212276348467606,-0.0637817382812615,0.599365234375
0.0099561891832867,-0.0693511962890926,0.5950254351704602
0.0151377334591529,-0.0790405273437751,0.5907887802127221
-0.0131234688868865,-0.0868988037109457,0.586686788402424
0.0349857587848075,-0.0924682617187799,0.5822080423179662
0.0266376225452441,-0.103225708007833,0.5771589406766051
0.0289517868798062,-0.1116943359375289,0.5706113559371303
0.023040771484375,-0.1203918457031336,0.5646425536595338
0.0233597154496353,-0.1266479492187645,0.5601322819811458
0.0293484153300704,-0.132598876953151,0.5544053800702816
0.0310110440300206,-0.1390075683593822,0.5479252641178022
0.0118424956534895,-0.14129638671875,0.5421983086603125
-0.01588499043528,-0.1416015624999681,0.53558349609375
-0.012916477593453,-0.128479003906192,0.5286674936251485
-0.0230507646291396,-0.1106262207030699,0.5234121135302151
-0.0396054664421379,-0.0845336914061949,0.5164604422951639
-0.052947998046875,-0.0521850585936486,0.5084228515625
-0.0546779650138396,-0.0116729736327589,0.5012690249663695
-0.0497080572039413,0.0321960449219918,0.4945551510855293
-0.0584055803562295,0.0765228271485193,0.48614501953125
-0.0258603576881717,0.1251220703126158,0.4792289467826612
-0.0420253703629184,0.1702117919922411,0.4719721231930413
-0.0329093466245465,0.2117919921876023,0.465087890625
-0.014247610657146,0.249938964843889,0.4571888485189889
-0.0159543132752706,0.28564453125,0.4496942710817913
-0.0136974087230738,0.3107452392578438,0.4430833172211577
-0.012886581825834,0.3326416015625444,0.4352835740426791
-0.0176115086629187,0.3492736816406858,0.4281970957535825
-0.0280796657943337,0.3591918945312664,0.4214832151794261
-0.0187488547039367,0.364303588867187,0.414261862902972
-0.0121715967501675,0.3619384765624864,0.4079171497110632
-0.016426360517772,0.3547668457030931,0.400255747665951
-0.008887192102448,0.3451538085937065,0.3954083361991545
0.0042884864477567,0.327758789062442,0.3879458633291027
-0.0063395860995647,0.3085327148436979,0.3826583619336575
0.0106441432375376,0.286788940429659,0.3759765625
-0.0067941202387087,0.2658081054686785,0.3703131334569434
-0.0286158418511345,0.2381896972655453,0.3661434787529832
-0.0206860873909955,0.2124023437499324,0.361328125
-0.0250726411932253,0.1852416992187152,0.3560726712784033
-0.0530331171504891,0.1608276367186843,0.3532907852672824
-0.0387443341345246,0.1353454589842852,0.34881591796875
-0.0224334921613239,0.1113891601562191,0.3460693359375
-0.0018647941010054,0.0888061523437229,0.3433580143794567
-0.0057968338440371,0.0683593749999517,0.3406114189615503
0.011725686969435,0.0498199462890002,0.3389828074484032
0.0967318673778343,0.0347900390624671,0.3363711998045031
0.1182893613412124,0.0188446044921534,0.3336921133335999
0.0388040838361976,0.0048828124999681,0.3338623046875
-0.1069041875995894,-0.0068664550781356,0.3318962521859937
-0.0775716455064965,-0.0158691406250251,0.3321339190202302
-0.0384183956373304,-0.0269317626953349,0.3313533928371609
-0.0185685547452649,-0.0338745117187789,0.3318287231589725
-0.01953125,-0.0444030761718836,0.3308780591686672
-0.0244127071002681,-0.0511169433593914,0.3311832382965873
-0.0186683724061059,-0.0605773925781684,0.33172607421875
-0.0261236399042874,-0.0683593750000299,0.331013113876025
-0.0009882939031167,-0.0791168212890707,0.3343025318294127
0.0290241685725159,-0.0875854492187789,0.3334545402060095
0.0214311171609144,-0.0974273681640958,0.3365413543450827
0.0106148816631773,-0.1074218750000308,0.3360660708765813
0.0018298047077296,-0.1196289062500154,0.3385750195402409
0.0115629084806663,-0.131072998046901,0.338810189761673
0.0151737469322064,-0.1413726806641016,0.3414241534584186
0.0138529282931475,-0.1510620117187809,0.34393310546875
0.013596615509164,-0.1632690429687654,0.3443058337036656
0.0377905426848721,-0.1751708984375289,0.3460017801371686
0.0434036797042716,-0.1866149902343895,0.3483406847002376
0.05218505859375,-0.1947021484375135,0.3489184062690211
0.0482875982773622,-0.2004241943359604,0.3514949341596702
0.0189231273170402,-0.204620361328124,0.3511548559984866
0.0122419168966183,-0.2008056640624922,0.3535962722884737
-0.0057765664345995,-0.1907348632812027,0.3534960028277788
-0.011138916015625,-0.1704406738280236,0.35675048828125
-0.0556729405355384,-0.1423645019530868,0.3562425647790442
-0.0537293926897706,-0.1090240478515176,0.3566132381610162
-0.04913330078125,-0.0689697265623928,0.3585139537017621
-0.0403845920454894,-0.0264739990232738,0.3585139503550903
-0.0526448101852806,0.0187683105469363,0.359124298570934
-0.0174143666075085,0.0658416748047459,0.35888671875
-0.0247858770951188,0.1104736328126052,0.358819116096342
-0.0385902067776154,0.1519012451172391,0.3607177734375
-0.0075472171470479,0.1910400390625926,0.3607177734375
0.0016921546609315,0.2258300781250637,0.3607177734375
-0.012441880191526,0.254516601562554,0.3611928929193558
-0.020633174927865,0.275802612304714,0.3604802170432302
-0.0013386061689761,0.2946472167969146,0.3609206416384508
-0.0066297637970187,0.3077697753906684,0.3614980486206178
-0.0051376878909164,0.3109741210937664,0.3614980419272776
0.0090340170341449,0.3147125244140533,0.3613627696866728
-0.0050023955702944,0.3080749511718605,0.3606501373171838
0.0001022573803094,0.3018951416015378,0.3605478765902103
0.0022715227893667,0.2732849121093528,0.3612604788396916
0.0200747050553588,0.2552795410155777,0.3608530724514604
0.0106976965872357,0.2340698242186631,0.3605479033635386
0.0088169924359579,0.2114868164061882,0.3614303321803248
-0.0061352219389492,0.187225341796845,0.3610906087657285
-0.0221756449309329,0.1622009277343064,0.3607177734375
-0.0208023639552951,0.1364898681640311,0.3607177734375
-0.0165816592078324,0.1123046874999382,0.3606832760041401
-0.0201403064027836,0.0885772705077461,0.3619729606091795
-0.0189534715379302,0.067138671874944,0.3607177734375
-0.0326882658671166,0.0468444824218508,0.3607177734375
-0.0161232529760799,0.0274658203124584,0.3608531393847732
-0.0066295529570513,0.0107574462889944,0.361362555500023
0.0477393675294801,-0.0054931640625173,0.3606500837705351
0.1179659696568215,-0.0208282470703332,0.3607854664511366
0.1050696975594971,-0.0341796875000309,0.3612604286396992
-0.0683530498015189,-0.0462341308594184,0.3635997548826951
-0.1162573510724815,-0.0559997558593841,0.363701828196371
-0.0600362383556153,-0.0659942626953274,0.3633289426681484
-0.0351300335570486,-0.0778198242187673,0.3638372409969648
-0.0226688163292581,-0.0849151611328429,0.3638715677503399
-0.0291781453295245,-0.0936889648437751,0.36285400390625
-0.0189894917042809,-0.1013183593750115,0.3658380419317851
-0.0077652624784125,-0.1123046875000154,0.3657360322047699
-0.0084771953947069,-0.1195526123047024,0.3654651329769138
-0.0039166835659854,-0.1290893554687654,0.3658380318917868
-0.0151906793889514,-0.1386260986328574,0.36590576171875
0.0081381413133013,-0.1458740234375318,0.3682116949281518
0.0040008087097859,-0.1571655273437577,0.3680077758740788
0.0073413202133669,-0.1657104492187809,0.368889776317621
0.0071709983395129,-0.1758575439453458,0.36834716796875
0.0362640513387331,-0.185546875,0.36865234375
0.0416405573170591,-0.1936340332031375,0.3681097454411213
0.0297375639818362,-0.2023315429687673,0.3714330751613275
0.021073940883018,-0.2119445800781684,0.3705511583844572
0.0252450062067003,-0.2194213867187664,0.37109375
0.0348407510927312,-0.224533081054687,0.3707208075784646
0.0162086230796134,-0.22430419921875,0.3708563442057072
0.0007125989028145,-0.2208709716796802,0.3711615233336196
-0.0148008446706594,-0.2093505859374652,0.3721111230841437
-0.0192427707355637,-0.193939208984305,0.37109375
-0.0344675409379599,-0.1698303222655564,0.3734673728763786
-0.0545925714836081,-0.1388549804687075,0.3737047585906825
-0.0685118424106479,-0.1034545898436418,0.37353515625
-0.0454884033095587,-0.0606536865232738,0.3734673628363803
-0.0151739979321604,-0.0172424316404584,0.3733317659691436
-0.0497943894739967,0.026626586914118,0.3715685013486008
-0.0497267918403293,0.0714111328126071,0.3704155949838863
-0.0475565893647685,0.1138305664064122,0.3713311189809645
-0.016428679757311,0.1542663574219218,0.3711615601469418
-0.0194634365063863,0.1892089843750424,0.3708903095191589
-0.0149875217013888,0.2206420898438166,0.3716362847222222
-0.0183953145786754,0.2455902099610113,0.3682454527483488
-0.0247870919348328,0.2644348144531703,0.368584520216394
0.000407142001667,0.2789306640625231,0.36834716796875
0.0046454669456978,0.2865600585937664,0.3682115075148542
-0.0136652271825979,0.291519165039061,0.3655667444506739
-0.0089177538565412,0.2886962890624864,0.3662109375
-0.0037469624186716,0.2826690673827878,0.3661430972330581
0.0021705137155681,0.2719116210937201,0.363057534747086
0.0313483645383951,0.2595520019531067,0.3637016842897299
0.0127664197823043,0.2433776855468277,0.3638711561104293
0.0108842163246367,0.2233123779296078,0.361260271346394
-0.0169713650794756,0.203857421875,0.3608197396578707
-0.0153599922430393,0.1797485351562191,0.3609892148252369
-0.0305182106449315,0.1554870605468141,0.358344230881106
-0.0346884644020604,0.1328277587889799,0.3587851440895604
-0.0182597645647763,0.1113891601561872,0.35858154296875
-0.0355192976687683,0.0882720947265417,0.3562080104523483
-0.014392949669107,0.0688171386718141,0.3564453125
0.007578055001176,0.0477600097656008,0.3563774320730735
0.0126323590347886,0.0292968749999642,0.35308837890625
0.1004047295909981,0.0145721435546331,0.3531562660265184
0.1304619838444666,-0.0003051757812789,0.3541054106304472
0.0388718086433578,-0.0122070312500154,0.3508506540970399
-0.0978953358206429,-0.0247192382812789,0.3506812826763123
-0.086481501231176,-0.0363922119141023,0.3514945994930674
-0.059186929819129,-0.0462341308593894,0.3510192691712129
-0.0385028755277338,-0.0547027587890755,0.3489852793494785
-0.026482804101743,-0.0634765625000144,0.34881591796875
-0.0140698591845852,-0.0698852539062847,0.3488838318623484
-0.0100196369511106,-0.0793457031250125,0.3470183701014809
-0.0121391106630734,-0.0867462158203197,0.346340084565367
-0.0128848248261825,-0.092468261718778,0.34576416015625
-0.0107997765942437,-0.102691650390651,0.346543832939475
-0.0026269353743144,-0.1095581054687673,0.3464758956192433
0.0145805035264092,-0.1196289062500231,0.3441024133028186
0.0063234986759831,-0.1269531250000289,0.3434586285467596
-0.005425223395581,-0.1383972167968895,0.3442048681364256
0.007156075555729,-0.1481628417968933,0.343763817714678
0.0210410230760313,-0.1583862304687731,0.3436279296875
0.0198543170578494,-0.1678466796875231,0.3442716542035503
0.0392515347569107,-0.1776123046875154,0.34393310546875
0.0388740358495813,-0.1875305175781414,0.3435266261070093
0.018310546875,-0.1933288574218952,0.34332275390625
0.02288818359375,-0.19989013671875,0.34088134765625
0.0246672461512715,-0.20477294921875,0.3413224583179942
0.0087301096393139,-0.2021789550781086,0.3413557576449121
-0.0052400306112478,-0.1922607421874536,0.3416609267328339
-0.0157505414744985,-0.1754760742186901,0.3418648524802471
-0.0429466539722374,-0.1515197753905931,0.341458446745145
-0.0638149773681677,-0.1234436035155429,0.3418301140869177
-0.0432662053573906,-0.0885009765623609,0.3413557241782556
-0.0374354179132337,-0.0491333007811457,0.3414237083518387
-0.0394522694582996,-0.0076293945311148,0.34393310546875
-0.0344334584911334,0.0343322753907283,0.3440011030289971
-0.0085084365220162,0.0756072998047401,0.3436279296875
-0.0171935368500414,0.1150512695313407,0.3436279296875
-0.0251247086231589,0.1502990722657287,0.3465105269192409
-0.0165475031344112,0.1812744140625714,0.3463065007718387
-0.0128339421159776,0.2083587646484708,0.3464425260123236
-0.009171826047646,0.2301025390625405,0.3490530761097605
-0.0149545319410931,0.2453613281250463,0.3492902275574308
0.0103438318353253,0.2548217773437568,0.3515625
-0.005138390690812,0.2606201171875077,0.353224434266729
-0.0204302515069322,0.2621459960937374,0.35369873046875
-0.0101708945419343,0.2568054199218489,0.3563442398394763
-0.013581316225418,0.2499389648437326,0.35888671875
-0.010882248485012,0.2387237548827857,0.3614291775805391
0.021008655795586,0.2230834960937065,0.3632952685146354
0.0003391996613659,0.2055358886718508,0.3656686336977318
0.0047312788091565,0.184936523437442,0.3682791168618541
0.0238377381642838,0.1634216308593359,0.3711618044535677
0.0069685417784817,0.1406860351561901,0.375164206176427
0.0124946420546351,0.1167297363280931,0.3785189610905622
0.0086107574889717,0.0921630859374401,0.38299560546875
-0.0254997594443296,0.0705718994139857,0.3857421875
-0.0263812595613038,0.0485229492187046,0.390556928813098
-0.0263120321012898,0.0299835205077859,0.3955078125
-0.0314154986587996,0.0103759765624555,0.4005596450207897
-0.008358293370927,-0.0064849853516247,0.4045621538369379
0.0010516964908701,-0.0238037109375318,0.4103605037206801
-0.0107656523141508,-0.0362396240234524,0.4157503260830775
0.0325615510516611,-0.0483703613281568,0.419785692466208
0.1260236989522858,-0.0568389892578342,0.4260278905845406
0.1205204513850207,-0.0683593750000154,0.43212890625
-0.0312152324905964,-0.0756835937500154,0.4368427455825265
-0.1132857291777692,-0.0856018066406414,0.4453195694973101
-0.0587764612315609,-0.0914001464843817,0.4501696415635823
-0.0404685214093218,-0.0973510742187789,0.4565102383563031
-0.025904543719708,-0.1078796386718967,0.4639353021935584
-0.0193609548994394,-0.1144409179687654,0.4710224665491984
-0.0230394010246354,-0.1210021972656336,0.4775674074225463
-0.0059127088083914,-0.1309204101562693,0.485570115855262
-0.0095789730692637,-0.1380920410156452,0.4924202559365574
-0.0064072757665373,-0.145721435546889,0.4994393223319142
0.0027302636877263,-0.1544952392578216,0.5084909863360507
-0.0089033698859988,-0.1611328125000299,0.515578170771683
0.0026991279804525,-0.1716613769531452,0.5232075719962767
0.0201578998260355,-0.1783752441406472,0.53070068359375
0.0105804210431495,-0.1878356933593938,0.5388071152465157
0.014190673828125,-0.1943969726562673,0.5472157575344031
0.0238377883642762,-0.2015686035156568,0.5548777251660525
0.0116663740073985,-0.2088928222656395,0.5631530898262529
0.0216318485155967,-0.2139282226562587,0.5719675756093806
0.0321797868183394,-0.2194213867187664,0.5800028303691606
0.0281265074053117,-0.224609375,0.588482739910003
0.0241072903590447,-0.2217102050781066,0.5970601712987579
0.0352315647108395,-0.2149200439452878,0.6068258029920895
-0.0001574673297755,-0.2050781249999517,0.6146597390573243
-0.0174469765212438,-0.185089111328095,0.6236104843474959
-0.0373208180286631,-0.1600646972655564,0.6318859862210513
-0.047540905214481,-0.1281738281248667,0.6417164796485412
-0.0606114884115606,-0.0891113281248928,0.649992004948735
-0.0458198554391522,-0.0453948974608752,0.658637530951037
-0.0235846415263561,0.0036621093751235,0.6673546689129211
-0.0527110239724979,0.0524902343751853,0.6763377329568729
-0.0345010410648008,0.1010131835938735,0.6841717459953983
-0.0294171207101797,0.148696899414117,0.6927490234375
-0.0280402889218849,0.1910400390626042,0.700615382003127
-0.010542930017059,0.2313232421875502,0.7088228093430882
-0.0185941500470612,0.2664184570313263,0.7156408214305607
-0.0109199285977785,0.2952575683594498,0.7249971458293459
-0.0191739867087636,0.3175354003906762,0.7327593260283516
-0.0140219550072739,0.3329467773437654,0.7391717088072475
-0.0105626803665576,0.345458984375,0.7472067761537307
-0.0084766867014645,0.345382690429686,0.7545310015970708
0.002649916929822,0.34515380859375,0.760771000955774
-0.0018348799267724,0.3401184082031144,0.7679909576725228
-0.0163751966875734,0.3308105468749546,0.7742992022447794
-0.0057140005133245,0.313415527343692,0.7810813213391491
-0.00823974609375,0.2960205078124739,0.7868796678762152
0.0032424190491546,0.2754211425780989,0.7939669727918384
0.0278172202448428,0.251770019531193,0.7988859125515483
-0.0009857922702594,0.2288818359374073,0.8069530275718654
-0.0200191102394402,0.2044677734374382,0.8115306676372718
-0.0100045652406774,0.1798248291015154,0.8169234651857742
-0.0229564555806076,0.1547241210936892,0.8235008017862153
-0.0250083768389185,0.1306152343749691,0.828857421875
-0.0130020317636316,0.1077270507811978,0.8336719556948141
-0.01953125,0.086212158203041,0.838627233554219
-0.0245986846777639,0.0683593749999507,0.8439838569896944
-0.0097635015404136,0.0501251220702956,0.8484932284148652
-0.0215084770193195,0.0355529785155834,0.8539181204905297
0.0477932354659906,0.0216674804687036,0.8586280576104565
0.1095486210172293,0.0091552734375,0.8639163186990793
0.0980209930898003,-0.0012969970703207,0.8681567955494001
-0.0416691010317142,-0.0103759765625328,0.8725658640472701
-0.1157893834157756,-0.0189971923828342,0.87554931640625
-0.0598237300832,-0.0289916992187683,0.88090585617505
-0.0270172817255315,-0.0360107421875077,0.8827369041692218
-0.0195631504205063,-0.0416564941406375,0.8876880288160641
-0.0166662411715461,-0.0511932373047034,0.8900611095325655
-0.0169873554497288,-0.0592041015625125,0.8930491133573346
-0.0078457029429493,-0.064468383789083,0.8972851257551782
-0.0041221922864501,-0.072784423828153,0.8998950466794
-0.0038624474964256,-0.0808715820312577,0.9025732897904752
-0.0014734500363403,-0.0878906250000222,0.9056250409096436
-0.0019812781585575,-0.0968170166015987,0.9079980981994552
0.0115466102171462,-0.1049804687500231,0.909797349519764
0.0106994368535662,-0.1122283935546976,0.91217041015625
0.011749267578125,-0.1217651367187673,0.9146801687130924
0.0190075553341684,-0.128707885742215,0.91705322265625
0.0215405213464785,-0.1373291015625135,0.9177319332189204
0.0268188327970468,-0.1450347900390697,0.9193261778186812
0.0229565492872564,-0.1507568359375135,0.9196997259867692
0.0319775728906239,-0.156402587890651,0.921904335535713
0.0395152637528631,-0.1631164550781414,0.92254638671875
0.015411376953125,-0.1661682128906264,0.9239722170442694
0.0297913582914778,-0.1608276367187336,0.9246826171875
-0.0004837672668545,-0.1535797119140494,0.925087821469496
-0.0295994905817555,-0.1406860351562075,0.9251561972030024
-0.0376759745936087,-0.1211547851561689,0.9246142280673294
-0.042627201313805,-0.0936889648436718,0.9245142263399312
-0.0350136281461182,-0.0611114501952627,0.9246142213740012
-0.0543738986523816,-0.0218200683592755,0.9247510163476688
-0.050940666093276,0.0193023681642232,0.92498779296875
-0.0286969985021573,0.06439208984375,0.9240354121387648
-0.0301992984729337,0.1096343994141209,0.9221728017373372
-0.038178498250168,0.1545715332032341,0.922072860249916
-0.0366026419068779,0.1951599121095227,0.9196314606932476
-0.0260583196767944,0.2325439453125888,0.9196314673865724
-0.0225194245047579,0.2667999267578516,0.917190067829904
0.002183438539632,0.2957153320313156,0.9162690653405082
-0.0240561867688862,0.3182220458985142,0.91461181640625
-0.0090184081838459,0.3350830078125328,0.911628491220577
-0.0012392051681027,0.3466033935547056,0.90972900390625
-0.0023886761801361,0.3524780273437654,0.907455894797174
-0.008034418093292,0.35491943359375,0.904441167844208
-0.007695009265281,0.3494262695312394,0.9027784069509912
-0.0041540977269556,0.3433990478515202,0.8992531996429837
-0.0094262228653364,0.3295898437499633,0.8969800738005771
0.00152587890625,0.3139495849609167,0.8952488300805211
-0.0046646567286683,0.294189453124945,0.8922655249748448
0.0015102165092756,0.2722167968749131,0.8885349495063494
0.0127988054694163,0.249633789062472,0.8856201171875
0.006256103515625,0.226364135742157,0.8831787109375
0.0103759765625,0.2023315429686785,0.8779222498694307
-0.0128419188945236,0.1757049560546107,0.8757860160540089
-0.0029237444904469,0.154418945312442,0.8711398965084549
-0.0392805737780071,0.1306152343749536,0.8675462632669306
-0.0296519094116497,0.1107788085936988,0.8634107713297334
-0.0263105796482334,0.0905609130859119,0.8591010419194097
-0.0227260777849283,0.0723266601562113,0.8556443977581883
-0.0242553602505235,0.0566101074218445,0.8508985743384835
-0.0019338040277213,0.0418090820312104,0.8457105894038975
0.025397947170573,0.0268554687499845,0.8434685206221916
0.1121489336633855,0.0146484374999691,0.8380812015659818
0.1225872335137799,0.0022125244140147,0.8333665489936024
0.0034189807818317,-0.0091552734375,0.82892593482181
-0.1022214789544677,-0.0173950195312654,0.8234327741059758
-0.0803545221307493,-0.028991699218777,0.81878662109375
-0.0514842868086312,-0.0382995605469068,0.8140719384013766
-0.029882113180673,-0.0485229492187664,0.8090895224272241
-0.0226766893611239,-0.0559234619140765,0.8063365281838807
-0.0326318410779428,-0.0671386718750289,0.8015222219373178
-0.0050631927785804,-0.07606506347659,0.7963717163155484
-0.0161277910552145,-0.0878906250000299,0.79230486784514
-0.0147700218765911,-0.0989532470703378,0.7876896949202838
-0.0017404470515681,-0.107879638671901,0.7823336102980483
-0.0032419187225361,-0.1197814941406414,0.7771146385827644
-0.0002863809048648,-0.1315307617187809,0.7725679719113919
0.0047899625978677,-0.1438140869141023,0.769173425138223
0.0156392112826496,-0.1559448242187789,0.76409159644986
0.014900511731468,-0.1678466796875154,0.760292357434593
0.012699078168609,-0.1797485351562722,0.7556461441823774
0.0266685959393058,-0.1889038085937905,0.7526629428233352
0.0202855550547599,-0.2000427246093899,0.7472074588735927
0.0369039974688599,-0.2082061767578197,0.7427978515625
0.0261165181989054,-0.2145385742187654,0.7395026304901918
0.0293346153527617,-0.219345092773436,0.7355044756865405
0.0237624900521255,-0.2192687988281259,0.729812466115671
-0.0043410508576322,-0.212326049804665,0.7262497694548677
-0.0206252483494084,-0.1992797851561988,0.7225876567332036
-0.041229519796158,-0.1773834228515263,0.7177734375
-0.0337940478275602,-0.1486206054686766,0.71319580078125
-0.0493544919786714,-0.1136779785155511,0.708885499091018
-0.0380251339330329,-0.073852539062387,0.704681628073658
-0.0490339550003737,-0.028915405273379,0.699730192186877
-0.0660444426056799,0.0184631347657495,0.6955949412096339
-0.0299686445773158,0.0653839111329848,0.690033150413658
-0.0174482917610168,0.109558105468861,0.6852496401878357
-0.0218543800527693,0.153198242187554,0.6799623228590952
-0.0265692719117719,0.1936340332032186,0.6746750256102912
-0.020191244332938,0.2278900146485606,0.6684722210977493
-0.020599365234375,0.2572631835938118,0.664230408927676
-0.0096246617538066,0.2803039550781472,0.6587372381718444
-0.0020142578788833,0.2983093261719223,0.6538544189785042
-0.0080528364697306,0.3133392333984853,0.6492767755664225
-0.0106315346733042,0.320739746093748,0.6428986659942829
-0.004688399650764,0.3202819824218759,0.6365280295273831
-0.0046119634721443,0.3179931640624826,0.6318511742010775
-0.0096320913523628,0.3083801269531105,0.6268997115409451
-0.007339486240391,0.2987670898437104,0.622322078168867
-0.0066947962111723,0.2826690673827557,0.6165847848600327
-0.0068550262136936,0.2644348144530777,0.611633282039877
-0.0120201082393203,0.2450561523437249,0.6056670801218444
-0.0119361922621405,0.2233886718749362,0.6000060673716258
-0.0068969231255703,0.1984405517577212,0.5946884526753534
-0.006836000417312,0.1734924316405917,0.5897674245960315
0.0167276859597418,0.148544311523407,0.58502197265625
0.0170442019187961,0.1223754882811862,0.5799713583218904
-0.0083236436642597,0.0980377197264828,0.574951171875
0.0045967829950584,0.0767517089843199,0.57037353515625
0.0245745719491161,0.0540924072265183,0.5655898073971696
0.0211905537872267,0.0341796874999536,0.5600662589538593
0.0190846759059227,0.0157165527343025,0.5555876902426877
-0.0188298557349999,-0.0006103515625308,0.5499267578125
-0.0276487423839377,-0.0153350830078436,0.5454178314938594
-0.0207933982370041,-0.0296020507812789,0.5418850808006095
-0.01434326171875,-0.0412750244140784,0.5380168000653124
-0.021820068359375,-0.0537109375000308,0.5333098247447968
-0.0032154047609727,-0.0659179687500463,0.5288009051194765
-0.0039549961985933,-0.0781250000000135,0.5253367811596873
-0.0109601856433638,-0.0849151611328284,0.5207673437727033
0.0465187045647163,-0.0975036621094068,0.5175396316473915
0.129067411379688,-0.1089477539062905,0.51361083984375
0.1146867841347527,-0.1165771484375318,0.5085218057834503
-0.0226934678712239,-0.1291656494140784,0.5065230530082343
-0.0974500083596925,-0.1414489746094049,0.5016402371615641
-0.0687592731429875,-0.1528167724609795,0.4987259771226016
-0.0405347050765829,-0.161437988281278,0.496688664061472
-0.0361331833105944,-0.1726531982422024,0.4921110206493903
-0.0243217413710616,-0.1849365234375328,0.4888916015625
-0.0113301478587902,-0.1972198486328274,0.4865877232060161
-0.0148075246160214,-0.2087402343750173,0.4830546010328506
-0.0073328029483457,-0.2167510986328523,0.47882080078125
-0.0113860505680065,-0.2290344238281549,0.4764481685180158
0.001265802796342,-0.2367401123046937,0.4740067656146721
0.0020717870678289,-0.2481079101562693,0.4718017578125
0.004154265060254,-0.2564239501953545,0.4691239598080081
0.002899169921875,-0.2653503417968822,0.46722412109375
0.0046138911517411,-0.2745056152343895,0.4643399576223155
0.0128623820838264,-0.2828979492187645,0.4616921624787095
0.0209583453652845,-0.2885437011718952,0.4579612389569309
0.0188176972973705,-0.2946472167968841,0.4554510118668959
0.0252458060598813,-0.296859741210936,0.4528120552682436
0.0425376177576639,-0.3018188476562519,0.45013427734375
0.0292579967807885,-0.3022003173828081,0.4469837761502769
0.0334571389591207,-0.2975463867187249,0.4444047516467504
0.0044639605139861,-0.2857971191406003,0.4417958079490167
0.0180547277242455,-0.2688598632811882,0.439857014042241
-0.0052061205177576,-0.2431488037108984,0.4370805429367504
-0.0362217729068589,-0.2099609374999073,0.4351417021766774
-0.0655335991373498,-0.1683044433592041,0.4321977371300863
-0.0463717993128758,-0.1226806640623686,0.4292744946394973
-0.0525005538196805,-0.0704956054686824,0.4255137021235063
-0.0467802498609002,-0.0172424316404907,0.4225996161111713
-0.0313046637735031,0.0364685058595806,0.4203256937622486
-0.0552275394480347,0.08758544921875,0.4180908203125
-0.0407205019341474,0.1385498046875579,0.4148715886389073
-0.0349872647845076,0.1832580566407341,0.4109340687302525
-0.0349621831960364,0.2245330810548395,0.40740966796875
-0.0154411087340673,0.2581787109375791,0.4058149280624231
-0.0138666429305052,0.2881622314453438,0.4025957198154927
-0.0256691994717064,0.3112792968750521,0.4007255057888486
-0.018783156357358,0.3275299072265794,0.3969945119871452
-0.0180742454804927,0.3387451171875058,0.3926626778477283
-0.0229623457128062,0.3414154052734507,0.3906938777334068
-0.002977629160162,0.3421020507812384,0.3888235967734352
0.0034798834100652,0.3368377685546803,0.3858799563534701
-0.0057687151561275,0.3305053710937191,0.3839111328125
-0.0058675338370956,0.3182220458983897,0.380957877421037
-0.0185909740610639,0.3034973144530569,0.3784868632167428
-0.0110748825812721,0.2851104736327888,0.37628173828125
-0.0068615756390554,0.265808105468693,0.37384033203125
-0.0048188024923438,0.2430725097655352,0.3704144939307589
-0.0055128893120603,0.2191162109374691,0.3677072720385968
0.0004233080718403,0.194931030273407,0.3661420262999307
-0.0032240441793378,0.1733398437499362,0.3629918329997202
-0.0159183516755172,0.148773193359291,0.3610918671121552
0.0019541517571282,0.1254272460936862,0.35858154296875
0.0030222803781835,0.1045989990234034,0.3562779858922167
-0.0055570920768526,0.0833129882812026,0.3536298025353507
0.0111633516975866,0.0652313232421677,0.3533641040265033
-0.0067777717752039,0.0497436523437113,0.3510210830642274
0.0096723082379944,0.0354003906249478,0.3490521557766007
0.0393037946202217,0.01922607421872,0.3485796835075633
0.0208796920204078,0.0075531005859235,0.3463055670520225
0.0102036065290211,-0.0027465820312731,0.3453504720759007
-0.0024171412480386,-0.0130462646484794,0.3434606566263767
-0.0238279474928822,-0.02471923828125,0.34149169921875
-0.0134724843197198,-0.0317382812500154,0.3417279169466084
-0.027539932231589,-0.043334960937527,0.3411175620374383
-0.0205105765114538,-0.05195617675784,0.338912363475295
-0.0229028352975953,-0.0637817382812644,0.3391485644698305
-0.0023388911764044,-0.0708007812500154,0.3385674928883602
-0.0194915518476212,-0.0828552246094049,0.3364709371452985
0.0276643947410398,-0.0910186767578342,0.3363037109375
0.0987955421273513,-0.1019287109375337,0.3363037109375
0.133011636333662,-0.1148986816406612,0.3340692591676594
0.0345490456418616,-0.1268005371094068,0.3347088438578584
-0.1220317840073788,-0.1387023925781395,0.33416748046875
-0.0813771360938882,-0.151672363281278,0.33416748046875
-0.0503831868339643,-0.1627349853515975,0.33355712890625
-0.0241433874987778,-0.1724243164062693,0.3345416578100557
-0.0379851529873786,-0.1828002929687654,0.3333209580317121
-0.0266576540147277,-0.1947021484375222,0.3337641536664018
-0.016297774915817,-0.2035522460937847,0.3338623046875
-0.0082543040909507,-0.2117919921875087,0.3343346263565758
-0.0101344125356623,-0.2216339111328274,0.3339313229808822
-0.0143378401197838,-0.2285766601562664,0.333931326327548
-0.0030118086601594,-0.2349853515625231,0.3340693796476543
0.0051734570573774,-0.2409362792968895,0.3341965429164951
0.0042524696280092,-0.2436828613281264,0.3343345928899074
0.0119328188228147,-0.2481079101562625,0.3343345861965757
-0.001692977940751,-0.2522277832031259,0.3340984420953755
0.0171498929784275,-0.2528381347656259,0.3336952123463307
0.0245321278572689,-0.2566528320312616,0.3363727560042122
0.0291788113160631,-0.258789062499999,0.3364017414786212
0.0271985405039512,-0.258331298828124,0.3365398349587096
0.0319276356135213,-0.2555847167968605,0.33599853515625
0.0403121450927448,-0.2494049072265378,0.3382038240783763
0.0388296456715484,-0.24383544921875,0.3385090032062826
0.0175162976878985,-0.2261352539062249,0.3410885430963634
0.0009187133697549,-0.2027893066405525,0.3411865234375
-0.0190213569848799,-0.1721191406248783,0.3443362415111288
-0.0410229301025983,-0.1318359374998947,0.3437660800609055
-0.0522020914504759,-0.0882720947264973,0.3454301227272243
-0.0477831653477963,-0.0364685058592427,0.3484416603074613
-0.0410431406187495,0.0169372558595806,0.3485798274142045
-0.0563971189028735,0.0717163085938851,0.3507160612296168
-0.0457072752674673,0.1248931884767278,0.35369873046875
-0.0260291869490847,0.1774597167970092,0.3558349609375
-0.011749267578125,0.2277374267578738,0.3581093886329718
-0.028228759765625,0.2713012695313427,0.3594395344302618
-0.0351872766060238,0.3073120117188562,0.3626179334316968
-0.0155294105170656,0.3385925292969455,0.3660036115398941
-0.0005152192341749,0.3616333007812751,0.36801326440635
-0.0069557709009389,0.3793334960937799,0.37109375
-0.0198970523095819,0.3900146484375231,0.3739498684101656
-0.0074852770523373,0.3962707519531332,0.378348846709975
-0.007776093962997,0.3954315185546803,0.3812741273201706
-0.00213623046875,0.3884887695312326,0.3858399770811672
-0.006990395507624,0.3804779052733897,0.390152912597562
-0.0166893482271118,0.3660583496093315,0.3937172591646957
-0.0005209537463677,0.3488922119140299,0.3981161169845316
-0.00693559719815,0.3289794921874401,0.4031658143323997
-0.0166357195774048,0.3052520751952821,0.4073405225020626
-0.01708984375,0.2815246582030661,0.4126668050633532
-0.0067912939792467,0.2573394775390154,0.41778564453125
-0.0010944401093242,0.2331542968749314,0.42236328125
-0.005723141931557,0.206756591796845,0.4282713984326196
-0.0115824161969097,0.1829528808593141,0.43487548828125
-0.008809445704054,0.1591491699217852,0.43975830078125
-0.0083353335687013,0.1370239257811978,0.4465413368621033
-0.0022257454181858,0.1171112060546657,0.4521036765112847
-0.0088582200146953,0.0991821289062017,0.4590535505866814
0.0114502212157148,0.0807952880858694,0.4665161305500599
0.0164856366663204,0.0662231445312094,0.4721884048314065
0.0094950420320907,0.0509643554687345,0.4791259765625
0.0040302995307695,0.0387573242187191,0.4866169931470469
-0.0068460621687064,0.0279235839843373,0.4935384306012674
-0.0219300665782035,0.0186157226562229,0.5014730042604297
-0.0228677739510109,0.0089263916015552,0.509033203125
-0.0206623327555701,0.000915527343721,0.5155802992512813
-0.0302470051970869,-0.0082397460937596,0.523681640625
-0.008488242739265,-0.0192260742187664,0.5318238380975369
-0.0164386059687013,-0.027008056640666,0.5386761401250486
-0.0043416766841815,-0.0372314453125154,0.5473878230212946
0.0157134938815593,-0.0458526611328255,0.5552531842804258
0.0934846374964789,-0.0537109375000309,0.5625774097237695
0.1255593574083154,-0.0644683837890813,0.5699708609537715
0.0125129466445176,-0.0726318359375164,0.5778362121729259
-0.1263350208856382,-0.0851440429687654,0.5856040783575082
-0.0862212343613324,-0.0967407226562693,0.5929283104941955
-0.0463598082084675,-0.1051330566406684,0.6005577184121257
-0.0283338952787304,-0.1170349121094068,0.6093385869350062
-0.007053665902086,-0.1291656494140849,0.6169679915062664
0.0132827902695531,-0.1358032226562837,0.625097428141236
-0.006817746027512,-0.1487731933594184,0.6317138671875
-0.0125544352631279,-0.1582336425781414,0.6391073418441662
0.0033287948258449,-0.1681518554687731,0.64697265625
0.0106595328812677,-0.1754760742187645,0.6543661376000021
0.0057084969210433,-0.1816558837890726,0.6613570719208309
0.0105079791104242,-0.1902770996093991,0.6691942910653923
0.0041264241456344,-0.1963806152343895,0.6770596155112647
0.0028224241766641,-0.1989746093750183,0.683940129933331
0.0327428315832893,-0.2060699462890707,0.6908899103020711
0.0201976916850448,-0.209808349609374,0.69915771484375
0.0173117176672912,-0.2133178710937731,0.7058155186820797
0.0167566496807903,-0.2142333984375009,0.7130984931199678
0.0318142154287192,-0.214462280273437,0.719645780006222
0.0462488093364867,-0.2142333984375,0.7276083585666645
0.0185124194427458,-0.2112579345702936,0.7349325806633303
0.016632080078125,-0.2096557617187191,0.73974609375
0.0104872097010823,-0.1976013183593605,0.7477779215237744
0.0052014217987073,-0.1821899414061959,0.7529793332824716
-0.0302537905624336,-0.1573944091796532,0.7600263209124735
-0.0546467054798666,-0.1269531249999044,0.7655608966203475
-0.0565200770858707,-0.0880432128904874,0.7718588702745727
-0.0363015875449279,-0.0436401367186341,0.77728271484375
-0.048127719674847,0.0039672851563117,0.7823735059037025
-0.0519560194645246,0.0546264648438793,0.7885463611020406
-0.0552856827501655,0.105819702148633,0.7936650298899602
-0.0268000479606492,0.1560974121095589,0.7990195315391586
-0.0212719999248621,0.2031707763672459,0.8046791955829351
-0.0170829763913095,0.2459716796875965,0.8091874860350264
-0.0088569800749289,0.2830505371094995,0.8136679790791509
-0.0271328672032598,0.3143310546875367,0.8175381406407599
-0.0119365888420321,0.339431762695341,0.821602556084985
0.0033084002430666,0.3582763671875318,0.8270263671875
0.0015605587329104,0.369796752929715,0.831298828125
-0.0264323865781145,0.373992919921874,0.8343228621561664
-0.0114926301675262,0.3736114501953118,0.8387617795682983
-0.004730224609375,0.3695678710937191,0.84239619862864
-0.0097309384800113,0.3574371337890475,0.8457808359237047
0.0140797920894659,0.3443908691405873,0.850261432714466
-0.0046678778947275,0.3276824951171194,0.8539094927854899
-0.017249479719281,0.3060913085936988,0.8560874494862291
-0.0161049299796067,0.2848815917968431,0.8604293001970365
-0.0010610370357421,0.2604675292968161,0.8631064991483073
0.0080177650831458,0.2365112304686573,0.8650763434224373
-0.0028364600939837,0.21148681640625,0.8679893183416355
0.0171454552992969,0.187988281249971,0.870874703346172
0.0109796849929392,0.1644897460936882,0.8724281554337786
0.0101121254132655,0.1439666748046194,0.8755911731582162
-0.0029900854510559,0.1245117187499536,0.8777549567283056
-0.0221599507406107,0.1065063476562287,0.8801688433436072
-0.0310657118194952,0.0897216796874575,0.8831092943908585
-0.0282562559736764,0.0756835937499845,0.8852455215129503
0.0018035718661287,0.0634765624999826,0.8879921001975303
-0.0049529920865016,0.0557708740234025,0.8878952008295211
-0.0149600823866384,0.0465393066406085,0.8906692456021388
-0.0132477038229799,0.0395965576171783,0.8902671871862138
0.0173620280976647,0.0296020507812364,0.8924034210016356
0.0968530869679693,0.0239562988280989,0.8928748959642003
0.1072345654493892,0.0192260742187442,0.894775390625
0.0221414035176623,0.0144958496093663,0.89447021484375
-0.1127487633078493,0.0085449218749835,0.8951500164195497
-0.073096963947962,0.0012207031249594,0.8971894345336051
-0.047779979321788,-0.0076293945312577,0.8969810778003778
-0.0268270120488311,-0.0135040283203197,0.8982291198401241
-0.0161879774969474,-0.0201416015625299,0.89752197265625
-0.0110074071009596,-0.0307464599609592,0.8979933907254822
-0.005166900938645,-0.0387573242187789,0.897355737061584
-0.0059434730357957,-0.0479125976562644,0.89752197265625
0.0026982093205668,-0.0579833984375173,0.8974524958696221
0.0034202709215518,-0.0660705566406414,0.8985342353813792
-0.014275157065186,-0.0775146484375231,0.894775390625
-0.008121901616438,-0.0862121582031568,0.8952467685342477
0.002109015380668,-0.0976562500000144,0.895150056579542
0.016632080078125,-0.1043701171875135,0.892333984375
0.016979564411226,-0.1141357421875212,0.8922372991936106
0.0389869875012312,-0.1202392578125173,0.889962078338292
0.0124367129390912,-0.1318359375,0.887451171875
0.0168058473446755,-0.1375579833984447,0.88714599609375
0.0214530026833701,-0.1434326171875154,0.8852725659210784
0.0351376070622807,-0.1493072509765842,0.8828040215562939
0.0336659608789124,-0.1556396484375009,0.8805287538476624
0.0283678003521937,-0.15594482421875,0.8782263781442157
0.0144592672030242,-0.1527404785156047,0.8754797927662956
-0.0177195674887277,-0.1419830322265147,0.8730383831696298
-0.0194288487130597,-0.1254272460936872,0.8679894522082826
-0.0366442710855542,-0.0995635986327171,0.86578369140625
-0.0496258329664342,-0.0666809082030313,0.8625503501886703
-0.0515341855990349,-0.0280761718749497,0.8581272825868567
-0.0525790080378996,0.0161743164063658,0.8554347157452131
-0.0456585528301812,0.0621795654298359,0.8502892736291126
-0.0370710563433452,0.1087951660157418,0.84564208984375
-0.0362194034673223,0.1560974121094358,0.8435597808579738
-0.0255595660394942,0.1998901367188523,0.8387195513364122
-0.0317786822022148,0.2397918701173308,0.8335741795003034
-0.0354542317879736,0.2751159667969151,0.8287878580750592
-0.0224471515787047,0.3047180175781607,0.8256238698175158
-0.0195818181236287,0.3298950195312963,0.82122802734375
-0.0181848394058617,0.3470611572266103,0.8158740109611317
-0.0157354982107333,0.3572082519531414,0.8113232479705402
0.0017132570635124,0.3630065917968851,0.807259521939525
-0.0098645323676515,0.3643798828124855,0.8040526963568417
-0.0154809641797281,0.3585815429687423,0.7987841939844563
-0.0142711142926468,0.350341796874971,0.794442149167019
-0.0031293485909149,0.33706665039057,0.7894201521738109
-0.01686765859277,0.3207397460936979,0.7853136691376852
-0.0095835964883791,0.299758911132784,0.78155517578125
0.004119873046875,0.277252197265568,0.7766456033397325
-0.004558947262392,0.2529144287108404,0.7725658635117901
0.0046848304314881,0.2288818359374362,0.7691393125714429
0.0266976081870654,0.203933715820282,0.7648401218124331
0.0165810668479511,0.1799011230468141,0.7602891948352083
-0.0088529858290847,0.1549530029295904,0.75714111328125
-0.0207682179218289,0.130615234374943,0.7527027246423509
-0.0344152358946527,0.1087188720702878,0.7494154251285418
-0.0300813033956533,0.0897216796874536,0.74493408203125
-0.0072863662838934,0.0718688964843083,0.74249267578125
-0.0232445633651573,0.0585937499999642,0.7375402258546545
-0.0248534211820966,0.0440979003905743,0.7349329220232613
-0.0128705814155485,0.0317382812499826,0.732710605264367
-0.0052278671535875,0.0218963623046725,0.7281494140625
0.0415616763989283,0.0131225585937248,0.7250710837217885
0.1116975922435553,0.0038909912109169,0.7226131549816226
0.1223340732891001,-0.0025939941406414,0.7175379192253456
-0.027124229458107,-0.0118255615234515,0.7148610013940073
-0.1213520978915561,-0.0204467773437654,0.713693342925447
-0.0612324271520049,-0.0265502929687731,0.7092550212198916
-0.0395732480883454,-0.0320434570312557,0.7054005722552574
-0.011770873653974,-0.0488281250000154,0.7004313488385331
-6.48433275278761e-05,-0.0560760498047323,0.6961756379645038
-0.0182408625950821,-0.0659179687500173,0.6931238834986678
-0.008392333984375,-0.0732421875000144,0.6898894914280085
-0.0117360616340074,-0.0827026367187712,0.6855641866340074
-0.0129483227939598,-0.0914001464843875,0.68389892578125
-0.00091552734375,-0.1022338867187808,0.6786412398334181
0.0124990211671289,-0.1107788085937615,0.676130129223496
0.0002099899061912,-0.1220703125000193,0.6734268865172536
-0.000226959176309,-0.1303100585937635,0.6680034402013207
0.0171285814092044,-0.1412963867187789,0.66619873046875
0.0278972658027894,-0.1497650146484621,0.6625629392753356
0.0224264641625984,-0.1596069335937722,0.658098419868164
0.0246580863263612,-0.1676177978515687,0.6561976507807461
0.029144287109375,-0.1728820800781395,0.6516200174086602
0.0291660186852049,-0.17951965332034,0.6487774463025779
0.0398951705863633,-0.1849365234374855,0.6441998229704534
0.0246584829062575,-0.179977416992185,0.6414097577075898
-0.00946044921875,-0.1747131347655989,0.6365007173859728
-0.0169807859443554,-0.1593780517577415,0.6333619094435273
-0.0347725159191709,-0.1361083984374275,0.629411949977305
-0.0454232253154864,-0.1058959960937036,0.6245553284856015
-0.0277797576653235,-0.0683593749999015,0.6220005840440452
-0.039215087890625,-0.0273895263671339,0.6169956751275976
-0.0645534125327014,0.0204467773438658,0.61248779296875
-0.0676138164568486,0.0667572021485907,0.60760498046875
-0.0400739093252746,0.113372802734486,0.6041782822750915
-0.0001174679774262,0.1590728759766218,0.5995047702681332
-0.0253383848820649,0.2026367187500956,0.5943167886802233
-0.0329110584442287,0.2393341064454356,0.5915525931456824
-0.0328496989960423,0.2706909179687876,0.5875331568928166
-0.0117929984630285,0.2974700927734688,0.582275390625
-0.0092250581174025,0.3201293945312828,0.57769775390625
-0.0032782752288835,0.3330230712891103,0.5751865596296833
0.0083130113063183,0.3430175781250154,0.57037353515625
-0.0330020777200647,0.3452301025390618,0.5652115437766707
-0.0046734183003,0.3451538085937335,0.5629795183396834
-0.0018310546875,0.3373718261718257,0.5580009309514734
0.0071805764976517,0.325164794921847,0.5552803123552104
-0.0159219660748664,0.3120422363280974,0.5513130205056203
-0.0182148054534422,0.2963256835936979,0.54779052734375
-0.0094683841638898,0.275421142578097,0.54290771484375
-0.0015168730279847,0.253143310546818,0.5407016662284411
0.005956024706769,0.2310943603514799,0.535749028888542
0.0103281259317173,0.2072143554686882,0.5326713879610397
0.0176743322774788,0.1821136474609022,0.5305351641856144
0.0147881005664461,0.1571655273436978,0.5269247608006616
0.0160269727413437,0.1342773437499073,0.5237514755048949
0.010449629988343,0.111389160156192,0.5211005579218975
-0.0243791400400564,0.0703430175780815,0.5152581558732897
-0.0142825548704565,0.0520324707030525,0.511029737060632
-0.0309587289467057,0.0378417968749546,0.5092685272930346
-0.0181396159078902,0.0211334228515475,0.5059814453125
0.0015957372128072,0.0090026855468431,0.504150390625
-0.0104237719733019,-0.0031280517578274,0.5009331803376808
-0.0099053549997708,-0.0091552734375318,0.4991977131251146
0.0331135652052729,-0.0205993652343967,0.4971570500512947
0.1125071072477918,-0.0271606445312654,0.4938699747640859
0.1154113724686221,-0.0362396240234515,0.491167582111009
-0.0038490340591459,-0.0439453125000125,0.4891012367221486
-0.1042909434360651,-0.049285888671901,0.4869207834085691
-0.0660647602150097,-0.0558471679687731,0.4865899654722709
-0.0377753973477978,-0.0651550292968894,0.4843838532702936
-0.038544181753129,-0.0732421875000164,0.4818026668205346
-0.0297196911119352,-0.0794982910156452,0.4791958716823795
0.0015037206305159,-0.0875854492187654,0.47698974609375
-0.0167369327979366,-0.0965881347656336,0.4764492963444577
-0.0205738100926432,-0.1071166992187654,0.4744784346838704
-0.025119864324119,-0.1145172119141103,0.4720370250872063
0.0111766262483645,-0.1243591308593894,0.4720370217405422
0.0036748668658693,-0.1339721679687731,0.46905517578125
-0.01157734265128,-0.1412963867187809,0.4670587824055873
0.0107794924514869,-0.1522827148437577,0.466988867205706
0.0376702333880282,-0.1606750488281549,0.465087890625
0.0166480386550187,-0.1690673828125231,0.4647127862572081
0.0051053323238327,-0.1757812500000193,0.4615656451164155
0.0256188639413959,-0.1838684082031375,0.4614766505735391
0.034532543232071,-0.1924133300781414,0.459760025090678
0.020751953125,-0.194778442382811,0.4572932042589156
0.0412432812868208,-0.19989013671875,0.4566828593897283
0.024140462512638,-0.1995849609375,0.454781862729036
0.0085672140173752,-0.1971435546874845,0.4547119140625
0.0259683495807198,-0.1876068115233926,0.45257568359375
-0.0048797804205588,-0.1696777343749353,0.4502042360502782
-0.0246939107128004,-0.1432800292968373,0.4497591395092999
-0.0517563004762918,-0.1110839843749092,0.4470125541313858
-0.0553224023697877,-0.0724792480468238,0.4441007304652783
-0.045696696456159,-0.0283813476561331,0.4426701144073532
-0.0452262773667252,0.0183105468751544,0.4419645066898642
-0.0304097083857963,0.0668334960938716,0.4396630613596028
-0.042006404806587,0.1151275634766238,0.4372469123980576
-0.0315535586722127,0.1608276367188571,0.4345703125
-0.0209969140178491,0.2021789550782669,0.4343855664955516
-0.0205447911514903,0.2384948730470067,0.4328092499856983
-0.0072192254702152,0.2709197998047266,0.4300626713011065
-0.0266454721504149,0.2972412109375579,0.4270809157018067
-0.0114665094392311,0.3185272216797439,0.4255102082041726
-0.009307861328125,0.331573486328138,0.4248746930598565
-0.0083124607797614,0.3395843505859457,0.4229036239059793
-0.0097979471004722,0.34515380859375,0.4200618995063849
0.0104109843624282,0.3438568115234128,0.4209325313254303
-0.0054125830380165,0.335540771484347,0.4178556634777706
-0.0228782590556685,0.3263092041015473,0.41717529296875
-0.011671899352971,0.3112792968749556,0.4157194397023566
-0.0040273594846838,0.2936553955077898,0.4151341513216933
-0.0031892689726956,0.2751159667968257,0.4123625128019347
0.0078520181017298,0.2529144287108462,0.4123625161486048
-0.0068414354029577,0.2316284179686872,0.4126676952765207
-0.0031693245165334,0.207061767578095,0.41259765625
-0.0086374940038461,0.1832580566405641,0.4126677019698488
-0.0049553063060208,0.1583099365233404,0.4132080078125
0.0103808225349478,0.13519287109375,0.41229248046875
-0.0050752307362636,0.111770629882784,0.4131379520526511
0.043577788330755,0.0900268554686978,0.412362539575263
0.0361104460615427,0.0717163085936862,0.4147089607502393
0.0020459240328379,0.0537109374999536,0.4152243473176384
-0.0035749621918073,0.0364685058593585,0.4179506820194739
-0.01898082049263,0.0234985351562171,0.4177155720380728
-0.0151661115136537,0.0102996826171368,0.419921875
-0.0194114527430372,-0.0003051757812828,0.4232087294072447
-0.0298021027627342,-0.0125885009765926,0.4245695942519271
-0.016739414350764,-0.0215148925781452,0.4259056402214303
-0.0107636510078696,-0.0279235839843817,0.4281368022185213
-0.0126319105815223,-0.0378417968750193,0.4323639894580746
0.0281791755618549,-0.0450134277343918,0.4349703763029762
0.0883976248225776,-0.0508117675781414,0.4370818180165113
0.1256952738821416,-0.0570678710937577,0.4398284033944194
0.0535419710257199,-0.0686645507812654,0.44464111328125
-0.109366356565692,-0.0746917724609592,0.44708251953125
-0.078603251961255,-0.0813293457031351,0.451825106724911
-0.0475393155481233,-0.0900268554687615,0.4546417980626664
-0.0495066079894153,-0.097351074218777,0.4595246072159946
-0.0221129016363389,-0.1074218750000289,0.4637723797982584
-0.0280885076859578,-0.1142883300781394,0.4670345257702514
-0.0121615600987616,-0.1239013671875231,0.4711667480147407
-0.009472771643036,-0.1306152343750318,0.4768703236634364
-0.0125927796890422,-0.1419067382812577,0.4824336472323569
-0.01953125,-0.1483154296875173,0.4884215288529954
-0.0130542514668669,-0.1574707031250405,0.4942444800786645
0.0079063512246713,-0.1663208007812654,0.4994534251825852
0.0083257687971819,-0.1722717285156317,0.5064269200267418
-0.0052721937450364,-0.1779174804687654,0.5122954193769854
0.014155595748209,-0.18470764160159,0.5187286719651681
0.0070769335976181,-0.1898193359375154,0.5242429166769818
0.0178633402610951,-0.1947784423828129,0.5314057223780199
0.0181930420842879,-0.1974487304687654,0.5383055671430537
0.0389449968826238,-0.19989013671875,0.5438444165434797
0.025190883923815,-0.204467773437499,0.5507721122630959
0.0243545035581407,-0.2030944824218682,0.5575316815218038
0.0293915120217799,-0.1969909667968566,0.5633757569034102
0.0019852171844479,-0.1876831054687094,0.5704437180894119
-0.0034606601604208,-0.1748657226561911,0.5781677329091135
-0.0194610603735099,-0.1500701904295897,0.5828857421875
-0.034400959017406,-0.1174926757811611,0.5893646265669041
-0.04425048828125,-0.0798797607421377,0.5947388166522959
-0.0475386629482187,0.0086212158204681,0.6070648319194042
-0.0411041737669726,0.0572204589844956,0.614013671875
-0.0527832416785897,0.1044464111328718,0.6193664165245353
-0.0438521547045916,0.1513671875001187,0.6248811398095668
-0.0265030296778524,0.1966094970704587,0.6319488265689317
-0.0245288698778824,0.2336120605469189,0.6369720752152306
-0.0176906807410138,0.2658081054687886,0.6427001953125
-0.0131334017916823,0.2926635742188098,0.6483338122546366
-0.0156597213252923,0.3147125244141219,0.6543211316353205
-0.0011141051188574,0.3277587890625231,0.659460620032586
-0.018251198773087,0.3346252441406351,0.6663392034283712
-0.0204600903811495,0.3399658203124855,0.6712220226217148
-0.0143323432208754,0.3341674804687423,0.6779116934138327
-0.01068115234375,0.3282165527343605,0.68359375
-0.0183928848991503,0.3179168701171621,0.6886389594687217
-0.0078412719571121,0.3015136718749546,0.695330936113793
-0.0137318141231324,0.2832794189452878,0.6999788360856766
-0.018157958984375,0.2644348144530796,0.7080780724064747
-0.0080530791029866,0.2426147460936573,0.7132199235499209
-0.0077096542758526,0.2200317382811949,0.7181950370988638
0.0068774940560032,0.197830200195282,0.72509765625
0.0047995106360412,0.174255371093692,0.7308719134850553
0.0007278011332205,0.1502227783202183,0.7372344108601911
0.013485986443776,0.1266479492187007,0.7427978515625
0.014003866277403,0.1073455810546638,0.7480320807281943
-0.0196468940444117,0.0892639160155815,0.7545351046096059
-0.023957177327914,0.0711822509764915,0.7599579853389747
-0.0142018182259651,0.0546264648437142,0.7647465055237745
-0.0134037454729618,0.0407409667968585,0.7717655618792119
-0.0239802743435067,0.0286865234374729,0.7771421147108158
-0.0234042696143934,0.0175476074218605,0.7820249205174877
-0.0043203584216379,0.0094604492187355,0.7869540843418857
0.0115854599896481,0.0026702880859025,0.7921181473077695
0.006289807789226,-0.0065612792968914,0.7977758836719355
0.0788851215603019,-0.0135040283203216,0.8032690644677264
0.1100855065672398,-0.0204467773437635,0.8085512848241806
0.0551127370900062,-0.0257873535156452,0.8128940759481436
-0.1116917790846311,-0.0314331054687577,0.8176362448085435
-0.0970132031838263,-0.0375366210937577,0.8216261534270938
-0.042808055145563,-0.0442504882812654,0.8264386658606648
-0.0121128661081359,-0.050582885742215,0.8311581543654094
-0.0100118157926078,-0.059356689453153,0.836181640625
-0.010247190160631,-0.0672149658203233,0.841698606176256
0.0003403492411476,-0.0741577148437799,0.8439279408937719
-0.0144487871184391,-0.0845336914062673,0.8480131458272906
-0.0055635176756235,-0.0920104980469049,0.8539521895506235
-0.0051765577434557,-0.1010894775390762,0.8569098458079004
-0.0118789642731151,-0.108642578125026,0.8610415995191688
0.0066431036077619,-0.1182556152343836,0.8652437034968659
0.0069249681868628,-0.1251220703125173,0.8682954646560376
0.0044254052480251,-0.1342773437500405,0.8723331235054154
0.0129936517118808,-0.1412963867187654,0.8753145143181236
0.0192961383452689,-0.1474761962890707,0.8783893172728586
0.0212339533521954,-0.1533508300781375,0.882568359375
0.0221486155828044,-0.159454345703151,0.8854793497212564
0.0290037606031205,-0.16571044921875,0.8883898313742694
0.0220194326009998,-0.1667785644531317,0.8935783015754502
0.0324546317654176,-0.1702880859375019,0.8953857421875
0.0119254427708492,-0.170364379882811,0.8973811784166746
0.0040494725804309,-0.1657104492187345,0.900338955153944
0.0073243576366218,-0.1573944091796657,0.9024751889693658
-0.0067726179095201,-0.1393127441405757,0.90484619140625
-0.0641690914466809,-0.1168823242187191,0.907733594450388
-0.0296021980345938,-0.0866699218749073,0.91033935546875
-0.0595445177369605,-0.0082397460936418,0.913931044297306
-0.048252985384054,0.0360870361328699,0.9149874160806082
-0.0393207287502923,0.0808715820313639,0.9173583984375
-0.0429710812875427,0.1255798339845401,0.9191659996895264
-0.0335692221507662,0.1679992675782799,0.9197998046875
-0.0148127387217054,0.2062988281250463,0.9223820854970446
-0.0192729007697113,0.2410888671875791,0.922640240620673
-0.0093430833146791,0.2709960937500927,0.92193603515625
-0.0243319219291455,0.2932739257812741,0.9246826171875
-0.0219374309167817,0.3089141845703294,0.9249173423023136
-0.0209162208800335,0.3210449218750145,0.9246121631743918
-0.0045186433634128,0.3257751464843779,0.9271240234375
-0.0006455819157182,0.326080322265624,0.9270535627310637
-0.0092493097327268,0.3224945068359266,0.9265608163592526
-0.0154230300442053,0.3106689453124681,0.927734375
-0.0040025205294643,0.2980804443359215,0.9270535526910711
-0.0143671769941548,0.2827453613280757,0.9279690766881494
-0.0018077886653085,0.261459350585852,0.9265841493147646
-0.0171959263696166,0.2410888671874401,0.9265841526614365
0.0026292362071743,0.2170562744140301,0.9274996833518488
0.0112678730974633,0.1922607421874401,0.9271240234375
0.0146720766754617,0.1683807373045962,0.9246121263610652
0.0071823334973572,0.1440429687499392,0.9244479355793428
0.0057278423239871,0.120086669921845,0.92498779296875
-0.014320089403215,0.0987243652343296,0.9223348841194636
-0.0264445366491017,0.0778198242186631,0.9230157298550524
-0.025869433846493,0.0598144531249662,0.9212078140164582
-0.0295326543146453,0.0457763671874787,0.91949462890625
-0.0130283465985499,0.0300598144530892,0.9172647654155286
-0.0044955664278897,0.0180053710937094,0.9175930566189852
0.000457763671875,0.0097656249999729,0.9145412954598288
-0.0078287838728606,-0.0002288818359604,0.9125461102305928
0.0502176105325542,-0.0073242187500173,0.912006289654514
0.1272352489456843,-0.0135040283203197,0.9104329382907368
0.0790240416667859,-0.01953125,0.9079684835518412
-0.0776961113627115,-0.0208282470703371,0.9051513671875
-0.1103187859221725,-0.0271606445312731,0.902639419911073
-0.0540851081479775,-0.0323486328125057,0.90087890625
-0.0415153987011145,-0.0387573242187509,0.8990002887449738
-0.01190185546875,-0.040435791015651,0.8959255426835788
-0.0116672341005834,-0.0468444824218822,0.8930378484794997
-0.0032863758340006,-0.0523376464843817,0.8909721657305013
-0.0025825284628387,-0.059509277343778,0.8872871183065887
-0.0094118974613947,-0.0695800781250231,0.88531494140625
-0.0105056598708723,-0.0759887695312673,0.8822860881760026
-0.0070772197375529,-0.0823974609375115,0.8778495803634231
-0.0044126393904913,-0.0933837890625125,0.8754787419131648
-0.005340576171875,-0.0988006591796966,0.8712062776290084
-0.0037679811546201,-0.107269287109401,0.86822509765625
0.0250472517114398,-0.1150512695312731,0.8634128696893275
0.0152816133247525,-0.1226806640625289,0.8606662910047493
0.019007212300917,-0.1327514648437558,0.8557834818514117
0.0404210891117676,-0.1383972167968933,0.8516978083846122
0.0150116963433834,-0.1447296142578342,0.848388671875
0.0258807254976577,-0.1513671875,0.8443507854523442
0.0189664130953936,-0.1566314697265687,0.8388576180431742
9.335190202496574e-05,-0.1600646972656279,0.8356873849068083
0.0448734149413527,-0.1568603515624768,0.8314627812934265
0.0072158336242368,-0.1470947265624691,0.8264387327939705
-0.0294393643259142,-0.1331329345702859,0.8205949719989596
-0.0383575616157047,-0.1097106933593064,0.8171194994946884
-0.0402339586077324,-0.0794219970701894,0.8138785379185515
-0.0338984939274599,-0.0436401367186466,0.809490091576782
-0.0655901427331232,-0.0020599365232962,0.8040675522073442
-0.0617020999349259,0.0433349609376177,0.7990208300455699
-0.0429238280366489,0.0887298583984939,0.793739583568936
-0.0355063527645971,0.1321411132813629,0.7890206773840462
-0.0232272544084554,0.1757049560548118,0.7841378715773899
-0.0238517757549497,0.2153015136719763,0.77911376953125
-0.0108931067429443,0.2505493164062905,0.7744429114304443
-0.0093304178571023,0.2819824218750589,0.7684100606585226
-0.0187006811199334,0.3041839599610055,0.7639256386284841
-0.0063846255308841,0.3225708007812741,0.7595118580248537
-0.0068101641556223,0.3338623046875077,0.7548635531063755
-0.01068115234375,0.34027099609375,0.7494410505502678
-0.0064665167751064,0.3403472900390639,0.7446770882007407
-0.007171630859375,0.3379821777343585,0.740989273084001
-0.0093930607517161,0.3285217285156033,0.7346287837084764
0.0028172636176481,0.3158569335937162,0.7302149629448519
-0.0078526673549295,0.3015899658202898,0.7248631654018045
-0.00457763671875,0.2835083007812036,0.7202855320297263
0.0143337889805689,0.2622222900389742,0.7155665154048595
-0.0084518310129368,0.2386474609374382,0.7103785237769377
-0.0132174148221402,0.214309692382782,0.705168149646656
-0.0127690502617976,0.1904296874999401,0.7004714887508285
0.0178787767581695,0.1660919189452183,0.6949559589193105
0.0327245169534764,0.144042968749943,0.69091796875
0.0215372215338201,0.1210021972655931,0.6853540929811113
-0.0060012113913777,0.0987243652343296,0.6805419921875
0.0007406372707734,0.078277587890541,0.6760350738684746
-0.0245220727991872,0.0622558593749565,0.6714574404963828
-0.0304357153274278,0.0450134277343527,0.6658935546875
-0.0245535481931408,0.0291442871093412,0.6617140842120939
-0.0338411387652181,0.0169372558593315,0.65704345703125
-0.0035822713103517,0.0042724609374691,0.6533328477722655
-0.0194979172064373,-0.0067138671875193,0.6486622339780626
-0.0183418013889647,-0.014495849609401,0.64361572265625
0.0518063599066417,-0.0229644775390716,0.638427734375
0.13814060783293,-0.0283813476562808,0.634694876480289
0.1078336454406164,-0.0395202636718967,0.6314794432726328
-0.0551853681095735,-0.0460815429687654,0.6264329687641408
-0.1184149399637095,-0.0531005859375096,0.6224878351902889
-0.0372823882626106,-0.0585937500000183,0.6193431839690121
-0.0367139737721091,-0.0666809082031684,0.6150220792408592
-0.0178616016680963,-0.0755310058593812,0.6122533857872092
-0.0201571535195015,-0.0809478759765697,0.6068309970177503
-0.0199380372549805,-0.0915527343750183,0.6051856488278193
-0.0054931640625,-0.0983428955078313,0.6013819687867337
-0.0127245529903701,-0.1066589355469087,0.5974633977011267
0.0026868139227572,-0.1156616210937615,0.5947168123232107
0.001744529984092,-0.1226806640625289,0.5912890867030779
0.0015966709326251,-0.1329803466797092,0.5876269706347497
0.0099316162880517,-0.140838623046903,0.5851147623183822
-0.0020129074991522,-0.149383544921888,0.5818066365019068
0.018247094087316,-0.156555175781278,0.5795996106601252
0.0200548760592462,-0.1667022705078207,0.5772998185828447
0.0351440828610169,-0.1731872558593914,0.5746679368361864
0.0301036691646851,-0.1794433593750231,0.5718505293119126
0.0298743556088608,-0.1852416992187635,0.5694091063285535
0.0328527561754475,-0.1910400390625096,0.567272859126492
0.0280188736060362,-0.1950073242187461,0.5639159087994124
0.036008140154631,-0.19439697265625,0.5621775366806998
0.0189073444401193,-0.19012451171872,0.5596434143952715
0.0035151539232641,-0.1771545410156028,0.557861328125
-0.0140926700603088,-0.1582336425780719,0.5554907574080317
-0.0156893543795602,-0.1317596435545731,0.5528150176031533
-0.0409125905237966,-0.0970458984373967,0.5509839696089697
-0.0601986386710127,-0.055465698242131,0.548095703125
-0.0605447224244243,-0.0100708007811322,0.5455834479553042
-0.0495065527693959,0.0394439697266276,0.5430494193764697
-0.0407627201260293,0.0881958007813716,0.540771484375
-0.0530707955899468,0.1361846923829633,0.5382592191653043
-0.0195638398337159,0.182342529296986,0.5352074580061401
-0.0319045887979827,0.2243804931641141,0.53314208984375
-0.0199181446721869,0.2618408203125811,0.530324638812812
-0.0162943747031591,0.2931213378907322,0.5284010220364698
-0.0300106117692641,0.3179931640625251,0.5262864712702057
-0.011820146617813,0.3362274169922092,0.524526288929062
-0.0054439279119595,0.3509521484375125,0.5230929352983177
-0.0074119080931626,0.3560638427734592,0.5211693486419761
-0.0300490047218725,0.3601074218750039,0.5189622257468774
-0.0243863822253304,0.3563690185546737,0.5161231385201022
-0.0031581014720332,0.3451538085937201,0.513916015625
-0.0031827664006273,0.3330993652343257,0.510793358692812
-0.0117277016622837,0.3182983398437056,0.5107717894303065
-0.01190185546875,0.3005218505859034,0.5086355690015488
-0.016667534657969,0.2786254882811959,0.5055129120693762
-0.0090735980532194,0.2564239501952801,0.5043846538999055
-0.0080054861655163,0.2317810058593161,0.5039161306967663
-0.0094325279841264,0.2057647705077067,0.5004667822674715
-0.0027498149106644,0.1809692382811853,0.5000412603760456
-0.0042379701975609,0.1555633544921561,0.49896240234375
0.0107273463748543,0.1313781738280661,0.4968971011146804
0.0150459913034486,0.1097106933592968,0.4962867528988504
0.0239950866873102,0.0872802734374555,0.4942923976427758
0.0352230424258034,0.0697326660156028,0.4914039470921786
-0.0059790598089757,0.0514221191405757,0.4912406599102836
-0.0215610615092281,0.0337982177733752,0.4887283177272791
-0.0105144682958477,0.0192260742187171,0.4889625508821727
-0.0242580459500221,0.0065612792968605,0.4862869248639355
-0.0285446114114827,-0.0048828125000289,0.4869186348489827
-0.0245845165671862,-0.0133514404296957,0.4840797484221727
-0.0018950295552079,-0.0241088867187683,0.48370361328125
-0.0023278170585606,-0.0321197509765975,0.4808860651969913
-0.0029843626521109,-0.0411987304687654,0.4810280006496727
0.0713543967834213,-0.0479888916015716,0.4788917735275868
0.1239191647573854,-0.054931640625027,0.4796866234412452
0.1103952689541166,-0.0646972656250231,0.4758400224084227
-0.0682961430922778,-0.0706481933593967,0.4762161843226737
-0.1187734264613571,-0.0802612304687654,0.476237422265248
-0.0409111046040795,-0.0872802734375308,0.474314153542171
-0.030946757922343,-0.0981903076172092,0.4741011784098262
-0.030670166015625,-0.1068115234375164,0.4716597654665016
-0.0319867795688277,-0.1156616210937577,0.4717307582928349
-0.0274190540014228,-0.1269531250000202,0.4708363919183245
-0.0029951037767534,-0.1354980468750405,0.468892012426002
-0.0092119157599284,-0.146179199218777,0.4698075464630766
0.0014193595467562,-0.1550292968750145,0.4666847824375792
0.00081284493688,-0.1654052734375193,0.4676924401502479
-0.0109124872858284,-0.1737976074218895,0.46630859375
-0.0084738989286707,-0.1829528808593895,0.4643144091739084
0.000244684792895,-0.1891326904297121,0.4646195916484866
0.0164728925621536,-0.1953125000000135,0.4640092467793302
-0.0029557302509997,-0.2008819580078207,0.4621071657988215
0.0243009652684532,-0.2072143554687654,0.46234130859375
0.02777099609375,-0.2130889892578342,0.4618019967109074
0.0266673593462142,-0.2160644531250096,0.45928955078125
0.0396268332313623,-0.2191162109375,0.4592185044082584
0.0311989794071574,-0.2192687988281259,0.4599208792463702
0.0289707357028098,-0.2155303955077878,0.4569191975975775
0.0220186595211465,-0.2099609374999642,0.4569902573572212
0.0043248027940684,-0.194091796874971,0.4547119140625
-0.0065131174261806,-0.1704406738280622,0.45501708984375
-0.032196044921875,-0.1399230957029946,0.4523415742654916
-0.0467838609135507,-0.102844238281138,0.4519444354485989
-0.054641118220947,-0.058059692382664,0.4495949989275715
-0.0556590418316321,-0.0096130371092465,0.4496660787672213
-0.0272212961595742,0.0402069091797497,0.4465432478083997
-0.04547119140625,0.0906372070313803,0.4449462890625
-0.0372626897864609,0.1414489746095574,0.4447121998142357
-0.0331826621452747,0.1873779296876622,0.4423627030532004
-0.01568706526005,0.2298736572266161,0.4400634765625
-0.0179238797761029,0.2679443359375859,0.439453125
-0.0325176109999271,0.3002929687500985,0.4370828186696498
-0.0178735459191266,0.3251647949219044,0.4347836222989363
-0.0117848208846139,0.3424835205078294,0.434448848603382
-0.0044709717792779,0.3549194335937625,0.432505191990898
-0.0189668163686541,0.3591918945312558,0.4296875
-0.0107522689967262,0.360107421875,0.4300637924342262
-0.0082649582022302,0.3562164306640502,0.4272253979673184
-0.010452903027659,0.3451538085937191,0.4274090228386257
0.0040797498679578,0.3320312499999787,0.4248046875
-0.0122219406471395,0.3140258789061998,0.4248758175396421
-0.0121301800847966,0.2955627441405584,0.4249675965086376
-0.0022795681744104,0.2716064453124382,0.4250180976989341
-0.0031631147777003,0.247421264648408,0.4249469676592688
-0.0234423613670718,0.2235412597655622,0.4249469743526124
-0.0120244739651419,0.1980590820311515,0.42510986328125
0.0003201755383549,0.1708984375,0.4248046875
0.0111903208057647,0.146179199218721,0.427693576463847
-0.0117136891716398,0.123596191406194,0.4273172505629704
0.0128426953209759,0.1007843017577241,0.4302266914028596
0.0251311593219478,0.0793457031249507,0.4317320452063956
0.0144343245012477,0.0600433349609138,0.4330950920773428
0.0150096933637793,0.0421142578124575,0.4358416908419223
-0.0093332073032612,0.0273895263671368,0.439453125
-0.0192207262464326,0.0149536132812123,0.4425048828125
-0.0220998814321683,0.0007629394530887,0.4443359375
-0.0145568124776457,-0.010375976562527,0.4476519882216386
-0.0318704410912257,-0.0224304199218914,0.45196533203125
-0.0089469367842921,-0.0289916992187808,0.4556578023603909
0.0056355513150971,-0.0399780273437693,0.4597575150911528
0.0028279729489123,-0.0460815429687654,0.4649454966790746
0.0058896937861733,-0.0558471679687654,0.4693603515625
0.0943653394335017,-0.0631713867187673,0.47393798828125
0.1372934980560186,-0.0709533691406684,0.4788920077942127
0.0674792921964145,-0.0802612304687577,0.484619140625
-0.1162161352070067,-0.0872802734375096,0.4907735490002045
-0.0951841012758128,-0.097351074218777,0.4969686059809218
-0.041966648087547,-0.1074981689453429,0.5019938659735073
-0.0155486337666989,-0.1170349121094049,0.5089619793787109
-0.0121204580199974,-0.1254272460937615,0.5144146052756852
-0.0257007618789372,-0.1367187500000135,0.5210775194730001
0.0046589908230917,-0.1435852050781414,0.5284932193387167
-0.0068255588193273,-0.1538085937500154,0.5356547332267032
-0.0085858415604589,-0.1628875732422295,0.5410362324307031
0.0033622547927661,-0.1699829101562818,0.5492047614715366
0.0005901644730393,-0.1813507080078207,0.5555826033103554
-0.000543823188618,-0.1879882812500173,0.5624187911409766
0.0210268884320744,-0.1937103271484563,0.5699056913263165
0.0180564813772753,-0.1998901367187654,0.577392578125
0.0109762613535978,-0.2059173583984447,0.5849305785538343
0.0258485573438497,-0.2116394042968895,0.5924174553125333
0.0109963815097184,-0.2143859863281279,0.5995077688809065
0.0282854322080317,-0.219421386718749,0.607442345886723
0.0362190470473898,-0.219039916992187,0.6142475737099685
0.0253551951854934,-0.2183532714843721,0.6220907967733947
0.0355218043215684,-0.2185821533203168,0.6297001447752044
0.0140881855278692,-0.2191162109374681,0.6367704519740313
-0.0005646946712933,-0.2068328857421525,0.6454267508942824
0.0013320199302195,-0.1930236816405796,0.6534526383358615
-0.0245779453884341,-0.1707458496093431,0.66192626953125
-0.0410304801811464,-0.1416015624999053,0.6683862720209485
-0.0419573744760728,-0.1030731201170511,0.677165085690946
-0.0565487831136731,-0.0587463378905081,0.6849570612575512
-0.0402617610357882,-0.0107574462890002,0.6929828918058103
-0.0565660318303376,0.0387573242188813,0.7004497287283538
-0.0495454477219134,0.090560913086133,0.7078253455751538
-0.047098246719715,0.1409912109375617,0.7153834427334099
-0.0332027856480635,0.1886749267578718,0.7237658471597267
-0.0320118912772855,0.2322387695313484,0.7311812926788454
-0.009480315028241,0.2703094482423193,0.7383430040201384
-0.0071359654395739,0.3028869628906993,0.7452708838064183
-0.0205795261981967,0.3274536132812905,0.7528289742713934
-0.0219469003082801,0.345764160156279,0.7604782212255018
-0.0181936294241769,0.3572845458984824,0.7676795838657923
0.0114500655957299,0.364227294921874,0.7744647885862339
-0.0151319822135801,0.3647613525390646,0.7809250387292281
-0.0141352262654822,0.3601074218749662,0.7871910416829542
-0.0171452795993391,0.3472137451171735,0.79437255859375
-0.0009770122919211,0.3327941894530757,0.8001314077784565
0.0040841925670769,0.3142547607421194,0.8058781453787884
-0.0079702524656339,0.2917480468749498,0.8115854124001078
-0.0147456363946102,0.2712249755859081,0.81878662109375
-0.0144540162840767,0.2470397949218103,0.8235069998116924
0.0054217897162397,0.2223968505858462,0.8295194693875514
0.0028795049123224,0.1962280273436872,0.8357854221412732
0.0189958922030421,0.1712799072265301,0.8405968636416887
0.0043277913668389,0.1464843749999401,0.8454600445988117
-0.0181936528508401,0.1242065429686689,0.8503625020283606
-0.0139855298942619,0.1016235351562036,0.8557842817045885
-0.0260407329468325,0.0833892822265398,0.8611346602612415
-0.023956298828125,0.0662231445312094,0.865478515625
-0.0117590532295766,0.0513458251952946,0.8708288774483266
-0.0100644354224831,0.03845214843747,0.8754779119399974
-0.0082495183585297,0.026626586914025,0.8802697687508452
-0.0207812498393439,0.0166320800781066,0.8841461182979425
-0.0203429838437238,0.0066375732421725,0.8877368299000105
0.0687877348641679,-1.3516867068996911e-14,0.8924054022279168
0.1100613252318672,-0.0067901611328602,0.8968207089112656
0.0869166447876782,-0.0169372558593832,0.8997296276712449
-0.1102043483510445,-0.0231933593750077,0.9046124435179168
-0.1057335154583872,-0.0289916992187673,0.9076642046770808
-0.0447405656868366,-0.0354766845703313,0.91217041015625
-0.014498978742098,-0.0408935546875154,0.915598781682915
0.0027593880487761,-0.0499725341797085,0.9184168083404116
-0.0284333950062542,-0.0585937500000154,0.9222412109375
-0.0206738569999992,-0.0659179687500463,0.92437744140625
-0.0022106971344071,-0.0759887695312673,0.926981120798342
0.0140410728369178,-0.0856018066406467,0.92940316323874
-0.0093242466049923,-0.0924682617187818,0.9324162402853996
-0.0017692584994055,-0.1036834716796947,0.93658447265625
0.0080678412468548,-0.1126098632812847,0.93916880831874
0.0213758620315679,-0.1206207275390784,0.9416102212620682
0.0179106537519043,-0.1306152343750164,0.9420583465358237
0.0075936571581313,-0.1381683349609524,0.9446619924612244
0.0231974155342612,-0.1483154296875193,0.9464215757491592
0.0277737554198779,-0.1545715332031452,0.9494733369083233
0.0205608919617732,-0.1608276367187664,0.9499022489724108
0.0307128192740596,-0.1674652099609466,0.9517717735858486
0.0423383371826982,-0.1736450195312615,0.954842737914634
0.026755179209341,-0.1789093017578342,0.9540509870137432
0.023956298828125,-0.1800537109375009,0.9540509903604014
0.0099112166852858,-0.1791381835937422,0.9572649242616786
0.0139882975870462,-0.1704406738280931,0.9568882402675254
-0.0248526832422234,-0.1557922363281047,0.9567975824316496
-0.0389814236689405,-0.1364135742186737,0.9564924099970656
-0.0464033600468098,-0.1053619384764526,0.9571027649062356
-0.0496983418324771,-0.0689697265624015,0.9564924166904014
-0.0530028482296456,-0.0282287597655718,0.956869117417881
-0.0445556640625,0.0177001953126235,0.9567975991649796
-0.0311374609923221,0.0663757324220574,0.9537458446991516
-0.0407672080051638,0.1147460937501853,0.9538889113249466
-0.0308870751538619,0.1617431640625579,0.9543562029549796
-0.0329422376582281,0.2075195312500975,0.9514665476046062
-0.0117850384179077,0.2453613281251332,0.9515380859375
-0.0109103454195509,0.2790832519531651,0.94940185546875
-0.0157143623414719,0.3086853027344107,0.9473561556625688
-0.015566126789958,0.3302001953125492,0.9474276973421224
-0.0091289736625508,0.3479766845703545,0.9442854222537296
-0.0182442494211124,0.3569030761718895,0.942149195131642
-0.0132961518336516,0.35919189453125,0.9397267209713264
-0.0244288815372124,0.3591918945312326,0.9392257551877212
-0.0109431126266725,0.3514862060546735,0.9368896484375
-0.004308246837278,0.3384399414062095,0.9343577818049182
0.0025487689693329,0.3221893310546252,0.931935260791278
-0.0096036062045376,0.3021240234374507,0.929637008180394
-0.0128437495207504,0.2816772460937191,0.9268904294958
-0.0033927261868609,0.2572631835936882,0.923947930288918
0.0039748469481346,0.2323913574217794,0.9202669791842278
0.0097392331917495,0.2056884765624334,0.9171248145358002
0.0088424923577321,0.1797485351562191,0.9150789775163214
-0.0059415369895222,0.1550292968749362,0.912242008729136
-0.0142980767074503,0.1298522949217794,0.9073591995758002
-0.0157898648002677,0.1065063476562007,0.9047745861400356
-0.0172655085762441,0.0868225097655989,0.9018319162531756
-0.0173140436001752,0.0668334960937017,0.8971264569724007
-0.0235437000875446,0.0509643554686978,0.8954947866064583
-0.0192073730490136,0.0344848632812162,0.8902693725591284
-0.0034378994848265,0.0216674804687162,0.887560169440661
-0.0043549596015887,0.0103759765624691,0.8830167858486787
0.0587246615347841,0.0013732910156163,0.8776139181821234
0.116952477031904,-0.0094604492187664,0.8755679640293299
0.1005425888041943,-0.0161743164062789,0.8705762342836431
-0.0575686963175352,-0.0250244140625405,0.8652449785766284
-0.1177806379858085,-0.0327301025390697,0.8636474609375
-0.061693358443302,-0.0384521484375212,0.8580826514487934
-0.037078857421875,-0.0472259521484766,0.85357666015625
-0.026964255475756,-0.0561523437500086,0.8507769933085758
-0.0158147589754733,-0.0627899169921957,0.8460189210912067
-0.024548109860858,-0.0729370117187673,0.8408309361566207
-0.0133826397236888,-0.0807189941406684,0.8368821814901223
-0.0168748472313853,-0.0900268554687654,0.8332732138249097
-0.0054850801907149,-0.1002502441406496,0.8284805772408792
-0.006965857752296,-0.1074218750000299,0.8242081129567093
-0.0109320167554464,-0.1189422607422005,0.821299702889949
-0.0069044564707868,-0.1284790039062712,0.8162018570580121
0.0120012079429505,-0.1384735107422295,0.8135269505729651
0.0080779414849098,-0.1458740234375318,0.8088591914849098
0.0143166272772172,-0.1570129394531317,0.8039948057280238
0.0143156517240844,-0.1651000976562809,0.80169677734375
0.0225287784362708,-0.18035888671875,0.7942475405378214
0.0249710782461139,-0.1865386962890687,0.7892562726320272
0.019207721102296,-0.1924133300781433,0.7855408140539539
0.0231750196452024,-0.1948547363281221,0.7813217090128631
0.0095054685700841,-0.1950073242187345,0.778755207733614
-0.0052947937806631,-0.1866912841796657,0.77484130859375
-0.0210121195949197,-0.1684570312499498,0.7704254095505237
-0.0357414276060165,-0.1454162597655294,0.7663681091182831
-0.0453179207957513,-0.1135253906249044,0.7623291015625
-0.0465666957553319,-0.0746154785154874,0.7590438970616114
-0.0419610440953566,-0.0302124023436341,0.7544662636895273
-0.0514579870337197,0.0176239013672497,0.7497451587450604
-0.0456602177965314,0.0686645507813784,0.7450058211641054
-0.0268913399897627,0.1190185546876544,0.741846993465521
-0.0217306420965724,0.1663208007813639,0.7372511341502932
-0.0193231576534334,0.2124786376953718,0.7325118032626836
-0.0165871209667793,0.2532958984375888,0.7279341565039413
-0.0112197480400586,0.2877044677735577,0.7227280058661913
-0.0134099936984351,0.3164672851562809,0.7178451967128477
-0.0110758464211076,0.3404235839844049,0.7126572117782696
-0.0047751636407244,0.3549194335937828,0.7081513443123674
0.0066873448592145,0.3664398193359592,0.7025864176903555
-0.0079885419954584,0.369720458984374,0.6980805569177737
-0.0079526423090152,0.3672790527343678,0.692353999713551
0.0158513095884083,0.3591918945312229,0.6885664004026889
-0.0051968117662022,0.3482055664062345,0.6841323189229881
-0.0142265668212159,0.3337097167968296,0.6787827234861818
-0.0137509286061087,0.3150939941405526,0.6739897221155544
-0.0036351017802318,0.2954101562499382,0.6688017271409644
-0.020455773182023,0.2708435058593431,0.66436767578125
0.000484674213365,0.2452087402343084,0.659251486872846
0.002710680671494,0.2191162109374015,0.6556073457477143
0.0299162023208193,0.1931762695311795,0.6511194565716476
0.0031953481915392,0.1658630371093431,0.64697265625
0.0054303705679406,0.1405334472655603,0.64178466796875
0.0117043185067677,0.1165771484374131,0.63690185546875
-0.0033838943352253,0.0915527343749517,0.6318575060931803
-0.0242973860091271,0.071792602539034,0.6269925848697415
-0.0128979738769525,0.0514221191405815,0.6247126954152958
-0.0082312154420877,0.0335693359374304,0.6196504949231803
-0.0425990156925106,0.0195312499999662,0.6154677179417457
-0.0311098426309658,0.0056457519530743,0.6115182604753787
-0.0218919078922151,-0.0071716308593952,0.6074613014030696
-0.0102860165064865,-0.0172424316406394,0.6024888350670025
-0.004425048828125,-0.0292968750000193,0.59967041015625
0.046504491274084,-0.0373840332031563,0.5947698201663535
0.1160124018929412,-0.0462341308593933,0.5922024855672414
0.1058955693938342,-0.0557708740234515,0.58746337890625
-0.019068258835773,-0.0634765625000318,0.5838908664740026
-0.1058236495409592,-0.0746917724609592,0.5799954342372414
-0.068520306129063,-0.0828552246093899,0.5779310633813394
-0.049608761623045,-0.0917053222656336,0.5725816352778325
-0.0236964703714761,-0.1028442382812635,0.5701402323744966
-0.0272054179026223,-0.1095581054687963,0.5674113240864948
-0.0257696965056741,-0.1217651367187808,0.562744140625
-0.0242967618559021,-0.1314544677734527,0.5600694416332466
0.0091010172879465,-0.1412963867187799,0.55816650390625
-0.0131856399016225,-0.1531982421875463,0.5548814600453326
-0.0106356644591614,-0.1632690429687673,0.5522419813667812
-0.0085177687002232,-0.1731109619140849,0.5483289824800893
0.008759824686931,-0.1846313476562702,0.5454385975565078
0.005125691766564,-0.1931762695312635,0.5431409875055111
0.0045592334022848,-0.203857421875027,0.540699577908841
0.0298633852376233,-0.2127075195312789,0.5382581683121752
0.0157875556006637,-0.219421386718776,0.5359605850344948
0.0114265820402371,-0.2291870117187596,0.5353133398257758
0.031890869140625,-0.2360534667968895,0.5332859295493997
0.0433611854124413,-0.238113403320311,0.5310777825744889
0.0276893106694771,-0.243835449218749,0.52825927734375
0.0189044947539642,-0.2422332763671792,0.5265001525490671
0.0383540509630698,-0.2365112304687384,0.52520751953125
0.0158059187571658,-0.2239227294921194,0.523448401429903
-0.0129438466281529,-0.2044677734374285,0.5210244145765486
-0.0409208249955781,-0.1752471923827075,0.5214015235972875
-0.0562155957378342,-0.1382446289061418,0.5184217057175969
-0.0469598721196618,-0.09391784667963,0.516573271793446
-0.051891067370344,-0.0451660156248715,0.5162135152360374
-0.0266682093994125,0.0608825683595092,0.51116943359375
-0.0448348563287517,0.1145935058594435,0.5107030087502089
-0.0201416015625,0.1654052734376255,0.5085667849747908
-0.0183465319014076,0.2141571044923598,0.5058202096368808
-0.0302829534101402,0.2563476562501419,0.5058921897296939
-0.023246616544741,0.2925872802734824,0.5039344603865638
-0.0067944749853155,0.3247070312500598,0.503413334286893
-0.0110136988330782,0.3477478027344532,0.5011706162519813
0.0064963707094165,0.3649902343750309,0.4990343891298877
-0.0144340316679523,0.3737640380859498,0.4987292166953095
-0.0265330911053944,0.37872314453125,0.4968981653544736
-0.0034530916751616,0.3776550292968547,0.4940075930176045
0.0081832711046756,0.3718566894531085,0.4941515900165518
-0.0034289371132236,0.3617095947265386,0.4912438425896709
0.0021825148598803,0.3494262695312017,0.4912610009463564
-0.0078625600996981,0.3300476074218489,0.4889087364925427
-0.02130061559272,0.30899047851557,0.4891247637842781
-0.0106451438906811,0.2856445312499073,0.4865222122186377
-0.0235620080240482,0.2618408203124276,0.48370361328125
-0.0130230638862442,0.2337646484374671,0.483936765463034
-0.0192346082171031,0.2081298828124362,0.48126220703125
-0.0060655945522832,0.1820373535155236,0.4813342373240518
0.0080596619950851,0.1550292968749382,0.47943115234375
-0.0040203314860448,0.1303863525390301,0.47889283776738
0.0081166624108206,0.1055908203124401,0.47698974609375
0.0167506658419777,0.0835418701171078,0.4765234818901819
0.0217840448463099,0.0631713867187046,0.47431521108863
0.0102573372520216,0.0452423095702898,0.4741541393996324
-0.0252236143175119,0.0274658203124555,0.471424528311784
-0.0196732306326663,0.0122070312499826,0.4712634633161283
-0.0233735104069854,-3.089569615770722e-14,0.4691441703241175
-0.0166214293134828,-0.0125122070312934,0.46966552734375
-0.0066969598307704,-0.025024414062527,0.4669910124186301
-0.0235452646539216,-0.0331878662109457,0.4669189453125
-0.0191624407110001,-0.0442504882812789,0.4668468715130417
-0.0119463276401825,-0.0546264648437731,0.465087890625
0.0363758099039727,-0.0634765625000492,0.46478271484375
0.1428461892670645,-0.0723266601562577,0.462663324798424
0.1296480813611871,-0.0827026367187664,0.46142578125
-0.0043470815502288,-0.0904083251953603,0.4616588664984558
-0.128925921033571,-0.1025390625000144,0.4600608903660988
-0.083172237548304,-0.1114654541015716,0.4587345095681121
-0.0410964630484367,-0.1217651367187808,0.458984375
-0.01434326171875,-0.1339721679687963,0.4595947265625
-0.0205381915261309,-0.1440429687500173,0.4566871832822294
-0.0321767229455855,-0.1541137695312731,0.4572254309252865
-0.0074020755882879,-0.1654052734375328,0.456992372450163
0.0018420535053707,-0.1771545410156337,0.4566484991696968
-0.0044137036303543,-0.185546875000027,0.4545509795868194
-0.0175198853138733,-0.1971435546875463,0.4540294385005493
-0.003750903117888,-0.2050781250000299,0.4543346109351293
-0.0061645604865913,-0.2156066894531317,0.4541736931927788
0.0055403386667669,-0.2235412597656549,0.4517322902894488
0.0153586820232766,-0.232391357421901,0.4518210572590204
0.0200416968884053,-0.2383422851562654,0.4522705078125
0.0039478125800066,-0.2445220947265707,0.451893187951807
0.0174700685168404,-0.2508544921875154,0.4521096268834795
0.0350011350418899,-0.2523803710937442,0.4517323070227789
0.0264893769538113,-0.2572631835937509,0.452037486150693
0.0269358991745179,-0.2577209472656259,0.4518044711822142
0.0118657750623605,-0.2583312988281259,0.4503672923122211
0.0082262707430374,-0.2509307861327647,0.449989949024864
0.030487638850767,-0.2389526367187046,0.4500786155944645
-0.0064035459072844,-0.2194213867186679,0.4496682674868041
-0.0265204641345597,-0.190277099609289,0.449057922617636
-0.0579441520850524,-0.1531219482421377,0.4498291015625
-0.0468412963958197,-0.1083374023436283,0.4497569206697288
-0.0361747639626178,-0.0588989257810414,0.4494517415418088
-0.0542769825510356,-0.0039672851560414,0.4502786525159643
-0.0535829676846336,0.0509643554688195,0.4500620864109806
-0.0290441950219763,0.104980468750139,0.44952392578125
-0.0379500933141607,0.159149169922069,0.4494517281551428
-0.0378384401690101,0.2084350585938089,0.447226921476777
-0.0100789800330043,0.253372192382868,0.4468495480694353
-0.0204106735107002,0.292053222656335,0.4471547271973494
-0.0144515782379068,0.3242492675782263,0.4473876953125
-0.0240646203672664,0.3494262695313079,0.4498291015625
-0.0170502359576049,0.3670501708984643,0.4497568838564005
-0.0088338060860541,0.3793334960937664,0.4497568805097364
-0.0070109038769802,0.384368896484374,0.4499013259619276
-0.0156000787167988,0.3840637207031259,0.4495961535273476
-0.0005182563335503,0.3803253173827878,0.4492024985898042
-0.0121583171794527,0.3686523437499681,0.4518768595683007
-0.003204345703125,0.3551483154296658,0.4524312080215665
0.0019438239457692,0.3378295898437056,0.4521260255469765
-0.0194951277602861,0.3159332275389683,0.4543344938018223
-0.0085891380264784,0.2911376953124391,0.4551615854959453
-0.0096329916055264,0.2668762207030931,0.4575307472665059
-0.0019555941701807,0.2400207519530506,0.4581971989915662
-0.0076855080804589,0.2129364013670904,0.4593618086473418
-0.0131025589175984,0.1843261718749362,0.4619477406695176
-0.000795174540265,0.1585388183593392,0.46424462784067
0.0031481819539159,0.1316833496093122,0.4669189453125
-0.0018110098313484,0.1075744628905352,0.46905517578125
-0.0042082250298649,0.0857543945311959,0.47056497730393
0.0176760993171296,0.0646972656249372,0.4736167485030864
0.0226472638001427,0.0456237792968296,0.4762187813355118
0.0195513550961318,0.0281524658202907,0.4791982612019182
0.0128896707985841,0.0149536132812152,0.4813344950173341
-0.0015460141223934,0.0009155273437017,0.4839364977297459
-0.0243619180967201,-0.0117492675781472,0.48652248999192
-0.0143752290725915,-0.0221252441406394,0.49163818359375
-0.0186640685936126,-0.0335693359375164,0.4941518912164982
-0.0237074708627161,-0.0413513183594242,0.4973482618145047
-0.0269118332991321,-0.0531005859375125,0.5013315005276736
-0.0252450179200131,-0.0618743896484476,0.5042790833202395
0.0030517578125,-0.068969726562528,0.5091937493874253
0.0179981724152675,-0.0793457031250289,0.5137713794128317
0.0934771978577682,-0.088043212890651,0.5161809990289432
0.1210383596653311,-0.0967407226562644,0.5207745324113248
0.0615871553437121,-0.1071166992187808,0.5255126953125
-0.1101174488210375,-0.1189422607422005,0.53070068359375
-0.111471765913783,-0.1283264160156452,0.5359610067144046
-0.0442776113359881,-0.1388549804687963,0.54046630859375
-0.0356286734076585,-0.1504516601562809,0.545188628377993
-0.027313232421875,-0.1614379882812577,0.5511474609375
-0.024766586912104,-0.1704406738281588,0.5552752254228507
-0.0075366366624267,-0.1821899414062905,0.5624231953534624
0.0020481194457317,-0.1901245117187789,0.5672336663207318
-0.0014535206401812,-0.2006530761718837,0.5724374073589312
0.0005206809930545,-0.2070617675781395,0.579833984375
-0.0153216528370247,-0.2155303955078516,0.58502197265625
0.0142582630951089,-0.2246093750000154,0.5918962790128623
0.0001447433054658,-0.229339599609374,0.5975341796875
0.0162026660141368,-0.2313232421875154,0.6046255976556547
0.0145603967569564,-0.2374267578125231,0.61126708984375
0.0204673191797981,-0.2380371093750183,0.6172101930729659
0.0294729163261179,-0.2439117431640637,0.6250156356236619
0.0331555775771467,-0.244140625,0.631103515625
0.039701243003688,-0.243682861328124,0.6380345580106757
0.0203743822643529,-0.2432250976562509,0.645751953125
0.023956298828125,-0.2423858642577944,0.6532209687271341
0.0266149103963238,-0.2366638183593605,0.6606899977159318
0.0179200963701608,-0.2302551269531163,0.6678538643101213
-0.0039026476486915,-0.2145385742186853,0.6756591796875
-0.0012491447662028,-0.1885986328123957,0.6831282220629623
-0.0292658447126147,-0.1573181152343281,0.6910783142124713
-0.0395047619148623,-0.1189422607421377,0.698066346973856
-0.0592662692305409,-0.0726318359373764,0.7060733592190768
-0.0569307581867866,-0.0226593017576054,0.7141682783407354
-0.03082275390625,0.0312805175782592,0.7221028653865172
-0.04302978515625,0.0843048095704131,0.7295874128656759
-0.0397530042137356,0.1382446289063736,0.7373771227393894
-0.0250321247810026,0.1871490478517493,0.74462890625
-0.0123179933086668,0.234222412109486,0.7521704507981527
-0.0129052227555818,0.2742004394531959,0.7601204258143606
-0.0168208922817767,0.3106689453125724,0.7671394654364465
-0.0203457833298634,0.3376770019531511,0.7743034090039675
-0.0122454175092492,0.3575134277344223,0.7806242939338003
-0.0111521336730977,0.3723144531250463,0.7873381745079641
-0.0034273072869451,0.3793334960937645,0.7944603483368295
-0.0033855091015792,0.3826904296874923,0.8015518466249866
-0.0129470192675601,0.3768920898437364,0.8065489879296635
-0.0172939552373633,0.3681182861327705,0.8138313365410323
-0.0070991554599951,0.3552246093749575,0.8203697012156494
-0.008296964042729,0.3379058837890378,0.8263435368789542
-0.013244651663616,0.3178405761718219,0.8321991080583705
-0.0219364135303091,0.2952575683592852,0.8387680177537634
-0.0002174663581374,0.2709960937499314,0.8435783481610458
-0.0031032111292652,0.2441406249999179,0.8487511325385496
0.0125847025106317,0.2185058593749362,0.8555678996662365
0.0069102947296928,0.1933288574218431,0.8607407007770762
0.0070038758783397,0.1663208007811862,0.8654060134522901
0.0105859162687452,0.1422882080077509,0.8702011633824981
0.0102385289889415,0.1211547851561901,0.8756218252722958
-0.0007840686290615,0.1000213623046628,0.8801994653377081
-0.0218699136031183,0.0814819335937075,0.885547601628126
-0.0205404555457422,0.0648498535155641,0.8882639799985583
-0.0353066940163451,0.0495910644530714,0.89310446721333
-0.0147223837590887,0.0361633300781085,0.8974494470568778
-0.0107475368109637,0.0253295898437287,0.90240478515625
-0.0155927076848953,0.0164031982421455,0.9057316255291652
-0.0086762751697263,0.0071716308593585,0.9101067153268664
-0.002806661379639,0.0006866455078001,0.9149169921875
0.0745479494886411,-0.0082397460937702,0.9182163898989886
0.0962817491646781,-0.0157928466797092,0.922473841039376
0.0635837695995065,-0.0221252441406433,0.9250603419947804
-0.110056209852944,-0.0282287597656351,0.9297980530960476
-0.0970417351849412,-0.0387573242187664,0.9320793916568664
-0.0347324195135975,-0.0450134277343817,0.934868657066555
-0.0318545879342777,-0.0537109375000347,0.9394036171001946
-0.0313317132015925,-0.0614929199218894,0.9419175924562329
-0.022793265452057,-0.073547363281276,0.94512939453125
-0.0135300787686377,-0.0832366943359466,0.9485589005776948
-0.0091775823131874,-0.0924682617187808,0.9520032859012708
-0.000762939453125,-0.1035308837891016,0.9540520713335304
0.0016339293654384,-0.1119995117187828,0.9568860850146144
-0.0079552426685058,-0.1239013671875096,0.95947265625
-0.0181372364283193,-0.132598876953151,0.9620592408720574
0.0080575469021821,-0.1422119140625347,0.9645880519985554
0.0082686479015218,-0.1513671875000154,0.9651688156867612
0.0150551226817049,-0.1585388183593895,0.9661717445603414
0.012141811422541,-0.1681518554687673,0.9694708544585552
0.0154261290569708,-0.1741027832031317,0.971607081580649
0.0384584334763092,-0.1803588867187664,0.9722753003453414
0.0240509994365652,-0.1866912841797056,0.973888530581437
0.017852783203125,-0.189971923828124,0.9766498279031736
0.025634765625,-0.1937103271484457,0.97625732421875
0.0063797226651575,-0.194702148437499,0.97869873046875
0.0264633616454478,-0.1934051513671686,0.979149158248714
-0.0075274483909102,-0.1853942871093272,0.97900390625
-0.0237963884322452,-0.1705169677734167,0.9814453125
-0.0346954555873804,-0.1501464843749266,0.9817358566574044
-0.0409735031921039,-0.119476318359233,0.9815179518860212
-0.0472876412432171,-0.0801086425780714,0.98114013671875
-0.0569443105108731,-0.0377655029296339,0.98114013671875
-0.0591604878108977,0.0097656250001322,0.9818231377072651
-0.042644674257062,0.0616455078126911,0.981212789491437
-0.0279453607401702,0.1127624511720072,0.9819103518238133
-0.029536645213864,0.1634216308594691,0.9812127961847652
-0.0211297716389215,0.2087402343751081,0.9811546612492827
-0.018157958984375,0.2510833740234892,0.9789893951061236
-0.001983642578125,0.2883911132813311,0.9784662241935076
-0.0097148042031276,0.3195190429688658,0.9791637363258914
-0.001271512208548,0.3448486328125453,0.9764171476013132
-0.0109064197803825,0.3617095947265784,0.9764171409079848
-0.0109427645733912,0.3718566894531414,0.97380147375821
-0.0135511945578913,0.3778839111328342,0.9739757212713132
-0.00457763671875,0.3744506835937345,0.9708368497422556
-0.0001231071096437,0.3681945800781163,0.9713018187860784
-0.0059145795947041,0.3575134277343335,0.9686279296875
-0.0059800889087688,0.342025756835881,0.966796875
-0.0007409518573608,0.323181152343695,0.9664773353281793
0.0103754996625996,0.3008270263671561,0.9639632361455072
-0.0169956284081628,0.2763366699218141,0.9615361770527424
-0.0030804052736266,0.2500152587889568,0.9610271826173766
0.01568676740676,0.2233886718749256,0.9593129131874216
0.0101000121556246,0.1947021484374179,0.9564208984375
0.0189650543490451,0.1693725585936882,0.9538340460821566
0.0092572279445232,0.1424407958984013,0.9524678834651876
-0.0119681796959983,0.1168823242186988,0.9490966796875
-0.022168732392254,0.0959777832030352,0.947585044191844
-0.0214271329549815,0.0752258300780627,0.945376063897071
-0.0097008218324854,0.0576782226562268,0.9442423004620156
-0.020686311617633,0.0427246093749584,0.941626974672172
-0.0033862119014599,0.0272369384765176,0.93902587890625
-0.0155861632794648,0.0158691406249864,0.9368754719602188
-0.0095898547538174,0.0065612792968643,0.9345209953601622
0.026603832931812,-0.0045776367187683,0.9323989179420156
0.1142388529677232,-0.0114440917968952,0.929187494040252
0.115071379647421,-0.0173950195312673,0.9265864350876564
0.0088798244169922,-0.0270080566406467,0.9242036891997188
-0.1138235183276094,-0.0341796875000173,0.9227928887512888
-0.0725801868407807,-0.0407409667968817,0.9182152352992184
-0.0396786714147447,-0.0460815429687635,0.9147714389888592
-0.0269493326919138,-0.0555419921875463,0.9124755859375
-0.0191826612671095,-0.0634765625000144,0.9100341796875
-0.0190932099043378,-0.0705718994140784,0.9078839199947816
-0.0007993344461202,-0.0804138183593894,0.9033343283372884
-0.0128103815871877,-0.0897979736328574,0.9001089655715627
-0.0010596950226011,-0.098571777343777,0.8986698791019236
-0.00946044921875,-0.1094818115234524,0.8949209906769691
0.0003934374042839,-0.1191711425781414,0.8905757330601545
0.0125919882025545,-0.1290893554687963,0.8879887167181796
0.0005514770138363,-0.1367187500000318,0.8852421313402673
0.0022090438813986,-0.1477050781250058,0.8803593154936014
0.024190294369777,-0.1556396484375328,0.8779179058969313
0.0224356959408177,-0.164947509765651,0.8737321570760617
0.0023616418120236,-0.1705932617187654,0.8704480335483039
0.0156437259350622,-0.1776123046875337,0.8673234388964989
0.0379579696926327,-0.1860046386718875,0.8631966248642808
0.0287160192784774,-0.1895904541015659,0.8608418872242951
0.0314017539014337,-0.1943969726562519,0.855712890625
0.0202194667675157,-0.1946258544921802,0.8532852994123424
0.0010178918173954,-0.1895141601562123,0.8484753170583038
-0.0077681941578688,-0.1779937744140465,0.8456558781077561
-0.0341659126226576,-0.1571655273436824,0.8412967786802731
-0.0494315958171687,-0.1287841796873667,0.8381996869297812
-0.0420482749452097,-0.0914001464843233,0.8338996963176398
-0.044266316338213,-0.0492095947265079,0.8297866839360997
-0.0300233826468044,-0.0021362304686196,0.8271129521308269
-0.0542938731744879,0.049362182617383,0.822854189097323
-0.0397594164258423,0.1007080078126293,0.8187137507877807
-0.0357852806442358,0.1531982421876013,0.81451416015625
-0.0356896295826416,0.1992797851563678,0.8118541229083346
-0.0152451346651269,0.2440643310547353,0.80657958984375
-0.0183378288964333,0.2819824218750965,0.8045891267602666
-0.0010749290463896,0.3146362304688601,0.7990367099758345
-0.0155799886806751,0.3439331054687963,0.7965087890625
-0.0119587036111416,0.3611755371093914,0.7920905406597333
-0.0184063050298859,0.3741455078125328,0.7895762306371077
-0.0066706299358288,0.37933349609375,0.7844611327418115
-0.0157758958163212,0.3787231445312519,0.7821061842618038
-0.0149307070256614,0.3767395019531085,0.7770639934858576
0.0064019244475598,0.3642272949218451,0.7738664047014128
-0.0162607507495998,0.3519439697265147,0.7705094543743332
-0.0093146149001587,0.334167480468692,0.7667014939474306
-0.0128903033184615,0.3109741210937191,0.7623291015625
-0.010810758678783,0.2867126464843141,0.7579837167723684
0.0001755845062137,0.2617645263670904,0.7542352098673449
-0.0005873398869228,0.2349853515624304,0.7503543155477884
-0.0108039933934357,0.2070617675780308,0.7477804783766202
-0.0007897931012449,0.1794433593749382,0.7424197385419525
0.0191531336327961,0.1525115966796513,0.7375369226952961
0.0231702874594343,0.1260375976561862,0.7342663297382472
0.0226596414444172,0.1012420654296138,0.7301263633085796
-0.0193750175901452,0.078430175781194,0.7251706068759616
-0.0180716451209789,0.0569915771484109,0.721143730984528
-0.020599365234375,0.0378417968749565,0.7177004801807102
-0.02838134765625,0.0215148925780757,0.7125124885527903
-0.022874863862972,0.0070190429687287,0.708240024268632
-0.014495849609375,-0.0070190429687654,0.704126801047136
-0.0176935488337828,-0.0192260742187693,0.7000865351449342
-0.0096362445649325,-0.0276184082031684,0.69580078125
0.0162041854004442,-0.0367736816406394,0.6901483962048143
0.0886436700350554,-0.0463867187500231,0.6864995463205958
0.1286051129753193,-0.0534057617187809,0.6835805105892222
0.0605568206216133,-0.064544677734401,0.6787241635240905
-0.1033687077002272,-0.0709533691406394,0.6743654857765538
-0.085727597776354,-0.0805664062500231,0.67138671875
-0.0547324269833355,-0.0875854492187808,0.6665900895934035
-0.0398320256918574,-0.0985717773437577,0.6641486733034112
-0.0284112701971508,-0.106506347656277,0.6590336791547793
-0.029296875,-0.1155853271484679,0.6562009372067822
-0.0168211734017231,-0.1251220703125193,0.6517824578840538
-0.0036555499095957,-0.1335906982422024,0.6483393878002207
-0.016154658090057,-0.1431274414062654,0.6455329004471589
-0.0097552988619565,-0.1533508300781742,0.6422489777193574
0.0027896335429621,-0.1605224609375299,0.638892037432283
0.0055727243538505,-0.1713562011718837,0.6346195698014511
0.0020032205743332,-0.1779174804687654,0.6321651048606389
0.0045280809616364,-0.1879119873047353,0.6289203280852563
0.023388978697341,-0.1947021484375154,0.62408447265625
0.0184606197461074,-0.2006530761718919,0.6219482421875
0.0253921089116718,-0.2067565917968933,0.6192146586070583
0.0217835445197416,-0.2133178710937577,0.6143918953355167
0.0175110819089056,-0.2188110351562664,0.6123416909168727
0.0291678560048372,-0.2239227294921863,0.6095821439014554
0.0380868598411273,-0.2238464355468759,0.6064101671520538
0.0267694761665427,-0.223770141601562,0.60211181640625
0.0239992900998459,-0.2194213867187191,0.6001217147627055
-0.0112592420457932,-0.2058410644530525,0.5976072474467669
-0.0090628652953182,-0.1837158203123986,0.5928834718628113
-0.0378160409333071,-0.1531219482421455,0.5901368864848991
-0.0580801505522176,-0.1165771484373822,0.5881468082680168
-0.062713623046875,-0.0697326660154425,0.5852540672915632
-0.0507194263692251,-0.0204467773436206,0.5810803631217397
-0.0453807962836374,0.0325012207032278,0.5780029296875
-0.0302983045672071,0.0863647460938851,0.574951171875
-0.0255982183586995,0.139389038086133,0.572509765625
-0.0329352196995838,0.1896667480469976,0.5700811436392134
-0.0195057082449477,0.2346801757813311,0.5655034935337762
-0.0242504373048168,0.277404785156335,0.562671036052405
-0.0177733032317591,0.3105163574219146,0.55999755859375
-0.0219059103428552,0.3393554687500637,0.5577023748755965
-0.0177685459459716,0.3608703613281974,0.5551020287628804
-0.0122308862854163,0.3741455078125135,0.5530516335842592
-0.0030278877170952,0.3797149658203207,0.5506960425444034
-0.0135500985247815,0.383453369140624,0.5482419524301747
-0.0174125878545598,0.3805541992187326,0.5454222490930092
-0.0037844567914463,0.3695678710937191,0.5428345834978285
-0.015428988783068,0.3562164306640398,0.5403931739011626
-0.012054443359375,0.3379821777343277,0.53802490234375
-0.0094175734070099,0.3192901611327415,0.5354372133219034
-0.0192992189513355,0.2966308593749363,0.5330563482602567
-0.0056583354173689,0.2706909179687133,0.530541803971003
-0.0083369031550681,0.2433776855468122,0.5309327079490785
-0.0059383710434747,0.215606689453012,0.5283324321163374
-0.0107971611747492,0.1879882812499314,0.5252806776505016
0.0087581413139531,0.1611328124999179,0.5265389738749281
0.0179259480157124,0.1353454589843103,0.5237548054375875
0.0341127709128935,0.110702514648407,0.5211670662157561
0.0045348060869984,0.0869750976561911,0.5211670628690843
0.008264698835612,0.0646209716796165,0.5185668271963297
-0.0244506515996257,0.0457763671874275,0.5182616547617516
-0.033074981492671,0.0280761718749787,0.5170534045810262
-0.0311700240527523,0.0140380859374565,0.5168214036523405
-0.0204529887558755,-0.0022888183594242,0.5138428273857503
-0.0153685764413619,-0.0148010253906399,0.5133056640625
-0.019073486328125,-0.0229644775390697,0.5110106476776558
-0.0085758785356863,-0.0344848632812654,0.5114014110957561
-0.0136292923561765,-0.0415802001953545,0.5107786869089915
0.044572802339145,-0.0508117675781414,0.509106408097572
0.1123042641467754,-0.0572967529296998,0.50933837890625
0.1383001099355313,-0.0634765625000299,0.508801239009658
-0.0009565942825219,-0.0742340087890707,0.5073732099245675
-0.1272949099608681,-0.0802612304687635,0.5062134027345139
-0.064105603518827,-0.0894927978516074,0.506604085832618
-0.0257693685323801,-0.0976562500000299,0.5064453467698558
-0.021978614988855,-0.1082611083984447,0.5066772874585415
-0.024316333158802,-0.1164245605469049,0.50384521484375
-0.0148742604831971,-0.125274658203151,0.5036865092476442
-0.0154602181970752,-0.1361083984375164,0.5035400390625
-0.015820311094401,-0.1435852050781395,0.5037597644202009
-0.0048217626183986,-0.1535034179687693,0.5036132841950702
-0.0019470183385068,-0.1636505126953574,0.5035400390625
-0.0014891325133198,-0.1702880859375309,0.5014770604196485
0.0214720251330413,-0.1813507080078207,0.50140380859375
0.0052735926514767,-0.1875305175781395,0.50079345703125
0.0107604783684746,-0.1964569091797295,0.50140380859375
0.0167664955722505,-0.2047729492187645,0.5015624539498749
0.0259033071266357,-0.2107238769531467,0.501562447256543
0.031195157514576,-0.2171325683593895,0.5014770804996503
0.0205260899818182,-0.21827697753906,0.5013305333411933
0.0330503550507322,-0.224304199218748,0.5008667356304786
0.0392145909107168,-0.2249908447265871,0.4993408600708926
0.0257993881266171,-0.2287292480468735,0.4990356876363144
0.0217407691079708,-0.2253723144531182,0.4994261766278083
0.0034482373361616,-0.2148437499999662,0.4992795859626793
-0.0113348131112494,-0.1995086669920991,0.49896240234375
-0.0282167787012584,-0.1730346679687104,0.4962158203125
-0.049285888671875,-0.1385498046874536,0.4967409021714224
-0.0579467457512216,-0.0973510742186283,0.4968381261660228
-0.0571471502651482,-0.0489807128904367,0.4939943402201802
-0.0334781325950498,0.0028991699220149,0.49407958984375
-0.0418526121162293,0.0570678710938513,0.4928827149808105
-0.0505492015486686,0.11077880859389,0.4909426125276627
-0.0502549091253535,0.1657104492188175,0.4917115056996331
-0.0318234806736027,0.2171325683594976,0.4892819767673527
-0.02197265625,0.2616882324220343,0.489501953125
-0.0293146457965649,0.3015136718750888,0.485901328698175
-0.0256714333712745,0.3354644775390997,0.4868523742084062
-0.0109614791297905,0.3611755371094262,0.4842406260045368
-0.0094663527376049,0.3807067871094474,0.481640724998385
-0.0097964009407478,0.3936767578125135,0.4817992130612009
0.0032469102749301,0.3981781005859389,0.4801266330498603
-0.0316649290241226,0.39886474609375,0.4786623294517546
-0.0091303491422788,0.3947448730468489,0.4762209298950983
-0.0057675304363465,0.3842163085937075,0.4763177757164431
-0.0018868268767663,0.3672027587890398,0.4746217021096273
-0.0155081692277939,0.3482055664061979,0.4719719156997162
-0.0056707364883346,0.3271484374999189,0.47210693359375
-0.0084290201373127,0.3012084960936863,0.4694454104261235
-0.0031484798072098,0.2754974365233494,0.4694337272150414
0.0032218353797315,0.2478027343749304,0.4689817967820386
-0.019768866634266,0.2196502685546513,0.4668455629666304
-0.0066637475171268,0.1910400390624314,0.467077349708667
-0.00579833984375,0.1639556884764596,0.4673091297573833
0.0003186594987077,0.1368713378905221,0.4640139722717548
0.0248969311870269,0.111618041992157,0.4646359233786825
0.0257255339008471,0.0885009765624507,0.4646243372209112
0.0165953788651901,0.0691223144530525,0.4640989608553803
0.0116643091144763,0.0503540039062268,0.46478271484375
0.0100744837872558,0.0327301025390407,0.4644775390625
-0.0277170009841583,0.0167846679687113,0.4661502429004894
-0.0320916774686112,0.0020599365233897,0.4664554253750793
-0.0317497803944584,-0.0100708007812789,0.4672356202382084
-0.0141229942011464,-0.0205993652343938,0.46905517578125
-0.0206922954565035,-0.0289916992187828,0.4691286016337838
-0.0109128989257962,-0.0405883789062731,0.4724855385742038
-0.0090141311446769,-0.0468444824218914,0.4729604739894399
0.0189061714337163,-0.0560760498047295,0.474780079732468
0.0956465235069532,-0.063476562500028,0.476305955292052
0.1207109319017021,-0.0739288330078226,0.478894243367112
0.0584676978243322,-0.0827026367187751,0.4815673828125
-0.1090320698101254,-0.0914764404297179,0.4847153472331144
-0.1023698483725222,-0.1025390625000144,0.486218472157112
-0.0482828811516267,-0.1094818115234524,0.4894284971524739
-0.0210374070033885,-0.1217651367187828,0.49163818359375
-0.0228768584759482,-0.1308441162109621,0.4939326645120259
-0.0240297648406434,-0.1409912109375309,0.4974252117063237
-0.0124811215238993,-0.1529693603515765,0.50140380859375
-0.0006809427888576,-0.1625061035156433,0.5040769179191398
-0.0041029656901569,-0.1729583740234853,0.5094966025824477
-0.0061458844168423,-0.1803588867187789,0.5119889651693188
-0.0005679877906565,-0.1907348632812693,0.5165156321645413
-0.0110792282270257,-0.1971435546875173,0.5214719240637257
0.0087031187778848,-0.2037811279296957,0.52642822265625
0.0033824753488363,-0.2099609375000145,0.5303108103888076
0.0028736131067918,-0.2155303955078281,0.535888671875
0.0201559955731175,-0.2214050292968933,0.5405398080729403
0.0265870443816733,-0.223846435546874,0.545654296875
0.0374319373805602,-0.228881835937498,0.550537109375
0.0238460345493511,-0.2295684814453371,0.55572509765625
0.0291643570655034,-0.23345947265625,0.5599240457279033
0.0375310656281465,-0.2339172363281259,0.5650898088000755
0.0268610175222597,-0.2285766601562355,0.573057695172837
0.0130122742349711,-0.2220916748046513,0.5777712768121026
0.0025738371711798,-0.2101135253905854,0.5834850229787932
-0.0142365599659883,-0.1901245117187065,0.5903570201358616
-0.0412979858896569,-0.1608276367186582,0.5954604381667336
-0.0380366682174749,-0.1236724853514075,0.6022699196024667
-0.0408255236606002,-0.0794982910155004,0.6088882060083746
-0.0439140429260128,-0.0314331054686602,0.6140872148608448
-0.0428662068144183,0.022583007812639,0.6224850474174892
-0.041961669921875,0.0764465332031877,0.6281143304271153
-0.0333119003470634,0.128326416015765,0.63507080078125
-0.0280706967293967,0.1790618896486185,0.6414794921875
-0.0199263908572502,0.22766113281261,0.649340502780825
-0.0215531248907533,0.2696990966797333,0.6556537807387842
-0.0178105449312547,0.3053283691407129,0.6632205390687531
-0.0212410533041874,0.3345489501954095,0.6696183370771248
0.0028678250479216,0.3594970703125309,0.6765638236733253
-0.0146116492737484,0.3718566894531414,0.684035208715019
-0.0242723311939325,0.3817749023437635,0.6918226395091924
-0.0191156994999913,0.3843688964843779,0.6995256305729454
-0.014080294089373,0.3790283203124855,0.7080078125
-0.00417289260333,0.3719329833983977,0.7156480234558309
-0.0013992845706425,0.3582763671874613,0.7234981841579128
-0.005803734669384,0.3407287597656008,0.7303592410637455
-0.0115544916156231,0.3201293945311901,0.7373782873791654
-0.0130282980718896,0.2960968017577316,0.7451656545866686
-0.0079291955668776,0.2709960937499382,0.753173828125
-0.0057193618722845,0.2438354492187133,0.7600349151508191
0.0052401561112326,0.2178955078124256,0.7670539648129128
0.0257920338280687,0.1893615722655294,0.7747676919812545
0.0084606059712519,0.1628112792967664,0.7822391473029173
0.0141485208962355,0.1360321044921551,0.7894161227879263
-0.0191471129806205,0.1129150390624469,0.7970348448012365
-0.0074608229637076,0.0920867919921107,0.8037487220287288
-0.0267130915373989,0.0724792480468276,0.8102310568207949
-0.0331696486344224,0.055847167968721,0.8167133983062184
-0.0244299859369172,0.0390624999999671,0.8233642578125
-0.0253348909627158,0.0264739990233955,0.8304569441670796
-0.0218990095175121,0.0148010253905931,0.8364656387036526
0.0027571574958688,0.0056457519531119,0.8434322092958422
0.0103652739246142,-0.0048828125000154,0.8491357682111924
0.0814450131741786,-0.0110626220703207,0.8554813716162359
0.1171664293907155,-0.0172424316406394,0.8606693632441519
0.0476389725686563,-0.0259399414062905,0.867919921875
-0.1199604604528943,-0.0338745117187654,0.8729605765312742
-0.0985610780524511,-0.0399780273437577,0.8791272604774558
-0.03964634596762,-0.0462341308593914,0.8853990966700518
-0.015832302198756,-0.0534057617187789,0.8903555759825242
-0.0190102611136537,-0.0631713867187644,0.8954594223866442
-0.0087291307395401,-0.0691986083984466,0.9007843395082124
0.0096550946612797,-0.0782775878906549,0.9063616421011708
-0.0029836682189978,-0.0864410400390842,0.911549643769108
-0.0145010503283715,-0.0973510742187654,0.9164324696557568
-0.0033781999829961,-0.1045989990234524,0.9205471620636312
0.0098819015643519,-0.1145935058593933,0.9253562943645008
0.0005521898536622,-0.1241302490234795,0.92987060546875
-0.00213623046875,-0.1318359375000135,0.9344482421875
-0.0040306609707214,-0.1386260986328523,0.9386366583011828
0.0026787618443639,-0.1486206054687654,0.9417724609375
0.0323700297216962,-0.1549530029296957,0.94633978992489
0.0308433425955954,-0.1657104492187654,0.9490229593283556
0.0212620000868037,-0.1718139648437731,0.9542109442629416
0.0225358767149308,-0.1777648925781467,0.957041517571329
0.0258764651918169,-0.1841735839843837,0.9590937500696134
0.0140176043414674,-0.1852416992187654,0.9636713834416916
0.0191779056546772,-0.190048217773436,0.9663442250338048
0.0018004126133894,-0.1870727539062326,0.9690068459078868
-0.0027363813932028,-0.1808929443359266,0.9712270241471486
-0.0369466440339696,-0.1702880859374401,0.9742787752663048
-0.0295969638489099,-0.1464843749999073,0.977025350604215
-0.0447769255399022,-0.1174926757811592,0.97869873046875
-0.0338897323558008,-0.0784301757811718,0.97900390625
-0.0622341796724867,-0.0357055664061254,0.9815190730191368
-0.0445506039034727,0.0131988525391228,0.9838129548842012
-0.0445556640625,0.0617980957032514,0.98419189453125
-0.045655617804087,0.1108551025392464,0.98663330078125
-0.0152287694681742,0.1632690429688639,0.9858653212491016
-0.0286613565090236,0.2077484130859911,0.986328125
-0.0308747242829156,0.2499389648438562,0.986170510417008
-0.017483863474121,0.2873229980470053,0.9871497884018556
-0.0059559410400856,0.3192138671875618,0.9883805415648714
-0.00588715031998,0.3427886962890881,0.9885381461078788
-0.0026058915383273,0.359497070312529,0.9886219432784138
-0.0141806873767346,0.3679656982422121,0.9864119087838552
-0.0198832991855755,0.3741455078125009,0.9862543243208788
-0.0034357174585819,0.3732299804687423,0.9861705572703362
0.0050453466820228,0.3648376464843451,0.986328125
-0.0074938461907216,0.3523254394530757,0.983960529469129
-0.0198513050583775,0.3372192382811979,0.9837291711003324
-0.0086705071908175,0.3161621093749276,0.9819818466500428
-0.010223388671875,0.2931213378905661,0.9809826024557544
0.0184433760494082,0.2680206298827792,0.9793927854951436
0.02044677734375,0.2426147460936737,0.978920212826116
0.0078188978214356,0.2134704589842794,0.97686767578125
-0.0044718050990989,0.1872253417967692,0.9740472596042068
-0.0059583690462439,0.1598358154296532,0.9721521898890528
-0.0216207476244246,0.1321411132811882,0.971901210017364
-0.0267349034332135,0.1085662841796107,0.96923828125
-0.0454734102458326,0.0868225097655945,0.9668805081839014
-0.0011468522458863,0.0664520263671648,0.96435546875
-0.0141021812851772,0.0479125976562104,0.9612298567117146
-0.018310546875,0.0325012207030699,0.9596301168863508
-0.0171316402619545,0.019073486328095,0.956642481194841
0.0389400421436384,0.0074768066406032,0.9539794921875
0.0849847148928169,-0.0003051757812799,0.9514642183250503
0.1137197599675823,-0.0109100341796947,0.9496331602908882
0.0266954713408342,-0.0175476074218952,0.9466455948793612
-0.1210294709203897,-0.0264739990234737,0.9444451653163024
-0.0747183148691245,-0.0344848632812635,0.9421515177178637
-0.0250758138326075,-0.0401306152343836,0.9400249289939224
-0.0228464272417878,-0.0463867187500135,0.9357620830279068
-0.0320867093428284,-0.0521850585937731,0.9325432964608864
-0.0253890868723195,-0.0613403320312722,0.9296393240732778
-0.00946044921875,-0.0695800781250077,0.9278178575839244
-0.006029614545894,-0.0756835937500154,0.924608716108394
-0.000878575130861,-0.0856781005859853,0.9197998046875
-0.0103342503305262,-0.0924682617187828,0.9172749459735524
0.013288273781863,-0.1046752929687615,0.914454462863212
0.0136637546495646,-0.1135253906250212,0.90972900390625
0.0102508430466136,-0.1239776611328574,0.907824031406308
0.0050818521150104,-0.1309204101562828,0.9047817613919792
0.0134192053966234,-0.1434326171875337,0.9001946301817298
0.0213623046875,-0.1525878906250173,0.8974575091752997
0.0296162272585351,-0.1628875732422034,0.8924818467731966
0.0220607471930336,-0.1699829101562664,0.8895134677979817
0.0226058404414475,-0.1776123046875463,0.88531494140625
0.0252603540170624,-0.1870727539062702,0.8821247119403749
0.0262034461755186,-0.1935577392578216,0.87799072265625
0.0299811744949342,-0.1943969726562509,0.8734964179214473
0.0085589778722849,-0.1935577392577907,0.8705092306831967
-0.005243228350612,-0.1849365234374836,0.865478515625
-0.0268367809669123,-0.1692199707031028,0.8625100596764703
-0.0403711602013831,-0.1431274414061708,0.8582282581940983
-0.0439450263600806,-0.110702514648297,0.8538078712717375
-0.065603720157168,-0.0709533691405139,0.8503769663188969
-0.0509459504789794,-0.0257110595702248,0.8465669075323874
-0.0315810548802749,0.0222778320313813,0.8408425290077126
